{
  "AcquisitionMatrixPE": 96,
  "AcquisitionNumber": 1,
  "AcquisitionTime": "14:28:21.027500",
  "BandwidthPerPixelPhaseEncode": 20.425,
  "BaseResolution": 96,
  "BodyPartExamined": "BRAIN",
  "CoilCombinationMethod": "Sum of Squares",
  "ConsistencyInfo": "N4_VE11C_LATEST_20160120",
  "ConversionSoftware": "dcm2niix",
  "ConversionSoftwareVersion": "v1.0.20211006",
  "DerivedVendorReportedEchoSpacing": 0.000509996,
  "DeviceSerialNumber": "166054",
  "DwellTime": 2.3e-06,
  "EchoTime": 0.03,
  "EchoTrainLength": 96,
  "EffectiveEchoSpacing": 0.000509996,
  "FlipAngle": 75,
  "HeudiconvVersion": "0.11.3+d20220512",
  "ImageComments": "Unaliased MB2/PE2",
  "ImageOrientationPatientDICOM": [0.999146, -0.0268731, 0.0313842, 0.0345418, 0.960077, -0.277593],
  "ImageOrientationText": "Tra>Cor(-16.2)>Sag(1.3)",
  "ImageType": [
    "ORIGINAL",
    "PRIMARY",
    "M",
    "MB",
    "ND",
    "MOSAIC"
],
  "ImagingFrequency": 123.26,
  "InPlanePhaseEncodingDirectionDICOM": "COL",
  "InstitutionAddress": "Street StreetNo,City,District,IL,ZIP",
  "InstitutionName": "Weizmann Institute",
  "InstitutionalDepartmentName": "Department",
  "MRAcquisitionType": "2D",
  "MagneticFieldStrength": 3,
  "Manufacturer": "Siemens",
  "ManufacturersModelName": "Prisma",
  "MatrixCoilMode": "SENSE",
  "Modality": "MR",
  "MultibandAccelerationFactor": 2,
  "PartialFourier": 1,
  "PatientPosition": "HFS",
  "PercentPhaseFOV": 100,
  "PercentSampling": 100,
  "PhaseEncodingDirection": "j-",
  "PhaseEncodingSteps": 96,
  "PhaseResolution": 1,
  "PixelBandwidth": 2265,
  "ProcedureStepDescription": "Weizmann^Sobel",
  "ProtocolName": "EPI_PSAP_iso2.5",
  "PulseSequenceDetails": "%CustomerSeq%\\cmrr_mbep2d_bold",
  "ReceiveCoilActiveElements": "HEA;HEP",
  "ReceiveCoilName": "Head_32",
  "ReconMatrixPE": 96,
  "RepetitionTime": 2,
  "SAR": 0.0905601,
  "ScanOptions": "FS",
  "ScanningSequence": "EP",
  "SequenceName": "epfid2d1_96",
  "SequenceVariant": "SK\\SS",
  "SeriesDescription": "EPI_PSAP_iso2.5",
  "SeriesNumber": 6,
  "ShimSetting": [5909, -4057, -1892, 396, 32, 54, 62, 1],
  "SliceThickness": 2.5,
  "SliceTiming": [0, 0.92, 1.84, 0.78, 1.6975, 0.6375, 1.5575, 0.495, 1.415, 0.355, 1.275, 0.2125, 1.1325, 0.0725, 0.99, 1.91, 0.85, 1.77, 0.7075, 1.6275, 0.5675, 1.485, 0.425, 1.345, 0.285, 1.2025, 0.1425, 1.0625, 0, 0.92, 1.84, 0.78, 1.6975, 0.6375, 1.5575, 0.495, 1.415, 0.355, 1.275, 0.2125, 1.1325, 0.0725, 0.99, 1.91, 0.85, 1.77, 0.7075, 1.6275, 0.5675, 1.485, 0.425, 1.345, 0.285, 1.2025, 0.1425, 1.0625],
  "SoftwareVersions": "syngo MR E11",
  "SpacingBetweenSlices": 2.5,
  "StationName": "AWP166054",
  "TaskName": "PSAP",
  "TotalReadoutTime": 0.0484496,
  "TxRefAmp": 240.4,
  "VendorReportedEchoSpacing": 0.00051,
  "WipMemBlock": "a4a32fbd-774a-4ced-b502-9fc72d900e04||Sequence: R016 ve11c/master r/e634e98; Dec 19 2017 11:00:25 by eja",
  "dcmmeta_affine": [
    [-2.4978652000427246, 0.08635442703962326, 0.05667869746685028, 114.97590637207031],
    [0.06718266755342484, 2.400193691253662, -0.6961011290550232, -87.79309844970703],
    [0.07846050709486008, 0.6939836144447327, 2.4004647731781006, -112.07921600341797],
    [0.0, 0.0, 0.0, 1.0]
],
  "dcmmeta_reorient_transform": [
    [0.0, -1.0, 0.0, 95.0],
    [1.0, 0.0, 0.0, 0.0],
    [0.0, 0.0, 1.0, 0.0],
    [0.0, 0.0, 0.0, 1.0]
],
  "dcmmeta_shape": [96, 96, 56, 494],
  "dcmmeta_slice_dim": 2,
  "dcmmeta_version": 0.6,
  "global": {
    "const": {
      "AcquisitionMatrix": [96, 0, 0, 96],
      "AngioFlag": "N",
      "BitsAllocated": 16,
      "BitsStored": 16,
      "BodyPartExamined": "BRAIN",
      "Columns": 768,
      "EchoNumbers": 1,
      "EchoTime": 30.0,
      "EchoTrainLength": 96,
      "FlipAngle": 75.0,
      "HighBit": 15,
      "ImageOrientationPatient": [0.99914607049494, -0.0268730661069, 0.03138420195794, 0.03454177012247, 0.96007747005205, -0.2775934394312],
      "ImagePositionPatient": [-991.47736665412, -924.11699812727, 160.66498326979],
      "ImageType": [
        "ORIGINAL",
        "PRIMARY",
        "M",
        "MB",
        "ND",
        "MOSAIC"
],
      "ImagedNucleus": "1H",
      "ImagingFrequency": 123.25995,
      "InPlanePhaseEncodingDirection": "COL",
      "MRAcquisitionType": "2D",
      "MagneticFieldStrength": 3.0,
      "Manufacturer": "SIEMENS",
      "ManufacturerModelName": "Prisma",
      "Modality": "MR",
      "NumberOfAverages": 1.0,
      "NumberOfPhaseEncodingSteps": 96,
      "PercentPhaseFieldOfView": 100.0,
      "PercentSampling": 100.0,
      "PerformedProcedureStepStartTime": "133130.944000",
      "PhotometricInterpretation": "MONOCHROME2",
      "PixelBandwidth": 2265.0,
      "PixelRepresentation": 0,
      "PixelSpacing": [2.5, 2.5],
      "ProtocolName": "EPI_PSAP_iso2.5",
      "RepetitionTime": 2000.0,
      "Rows": 768,
      "SAR": 0.09056006116616,
      "SamplesPerPixel": 1,
      "ScanOptions": "FS",
      "ScanningSequence": "EP",
      "SequenceName": "epfid2d1_96",
      "SequenceVariant": [
        "SK",
        "SS"
],
      "SeriesDescription": "EPI_PSAP_iso2.5",
      "SeriesNumber": 6,
      "SeriesTime": "142842.064000",
      "SliceLocation": -80.565056950728,
      "SliceThickness": 2.5,
      "SmallestImagePixelValue": 0,
      "SoftwareVersions": "syngo MR E11",
      "SpacingBetweenSlices": 2.5000000130754,
      "SpecificCharacterSet": "ISO_IR 100",
      "StudyID": "1",
      "StudyTime": "133130.873000",
      "TransmitCoilName": "Body",
      "VariableFlipAngleFlag": "N",
      "WindowCenterWidthExplanation": "Algo1",
      "dBdt": 0.0},
    "slices": {}
  },
  "time": {
    "samples": {
      "AcquisitionNumber": [1, 2, 3, 4, 5, 6, 7, 8, 9, 10, 11, 12, 13, 14, 15, 16, 17, 18, 19, 20, 21, 22, 23, 24, 25, 26, 27, 28, 29, 30, 31, 32, 33, 34, 35, 36, 37, 38, 39, 40, 41, 42, 43, 44, 45, 46, 47, 48, 49, 50, 51, 52, 53, 54, 55, 56, 57, 58, 59, 60, 61, 62, 63, 64, 65, 66, 67, 68, 69, 70, 71, 72, 73, 74, 75, 76, 77, 78, 79, 80, 81, 82, 83, 84, 85, 86, 87, 88, 89, 90, 91, 92, 93, 94, 95, 96, 97, 98, 99, 100, 101, 102, 103, 104, 105, 106, 107, 108, 109, 110, 111, 112, 113, 114, 115, 116, 117, 118, 119, 120, 121, 122, 123, 124, 125, 126, 127, 128, 129, 130, 131, 132, 133, 134, 135, 136, 137, 138, 139, 140, 141, 142, 143, 144, 145, 146, 147, 148, 149, 150, 151, 152, 153, 154, 155, 156, 157, 158, 159, 160, 161, 162, 163, 164, 165, 166, 167, 168, 169, 170, 171, 172, 173, 174, 175, 176, 177, 178, 179, 180, 181, 182, 183, 184, 185, 186, 187, 188, 189, 190, 191, 192, 193, 194, 195, 196, 197, 198, 199, 200, 201, 202, 203, 204, 205, 206, 207, 208, 209, 210, 211, 212, 213, 214, 215, 216, 217, 218, 219, 220, 221, 222, 223, 224, 225, 226, 227, 228, 229, 230, 231, 232, 233, 234, 235, 236, 237, 238, 239, 240, 241, 242, 243, 244, 245, 246, 247, 248, 249, 250, 251, 252, 253, 254, 255, 256, 257, 258, 259, 260, 261, 262, 263, 264, 265, 266, 267, 268, 269, 270, 271, 272, 273, 274, 275, 276, 277, 278, 279, 280, 281, 282, 283, 284, 285, 286, 287, 288, 289, 290, 291, 292, 293, 294, 295, 296, 297, 298, 299, 300, 301, 302, 303, 304, 305, 306, 307, 308, 309, 310, 311, 312, 313, 314, 315, 316, 317, 318, 319, 320, 321, 322, 323, 324, 325, 326, 327, 328, 329, 330, 331, 332, 333, 334, 335, 336, 337, 338, 339, 340, 341, 342, 343, 344, 345, 346, 347, 348, 349, 350, 351, 352, 353, 354, 355, 356, 357, 358, 359, 360, 361, 362, 363, 364, 365, 366, 367, 368, 369, 370, 371, 372, 373, 374, 375, 376, 377, 378, 379, 380, 381, 382, 383, 384, 385, 386, 387, 388, 389, 390, 391, 392, 393, 394, 395, 396, 397, 398, 399, 400, 401, 402, 403, 404, 405, 406, 407, 408, 409, 410, 411, 412, 413, 414, 415, 416, 417, 418, 419, 420, 421, 422, 423, 424, 425, 426, 427, 428, 429, 430, 431, 432, 433, 434, 435, 436, 437, 438, 439, 440, 441, 442, 443, 444, 445, 446, 447, 448, 449, 450, 451, 452, 453, 454, 455, 456, 457, 458, 459, 460, 461, 462, 463, 464, 465, 466, 467, 468, 469, 470, 471, 472, 473, 474, 475, 476, 477, 478, 479, 480, 481, 482, 483, 484, 485, 486, 487, 488, 489, 490, 491, 492, 493, 494],
      "AcquisitionTime": ["142821.027500", "142823.027500", "142825.027500", "142827.027500", "142829.027500", "142831.027500", "142833.027500", "142835.027500", "142837.027500", "142839.027500", "142841.027500", "142843.027500", "142845.027500", "142847.027500", "142849.027500", "142851.027500", "142853.027500", "142855.027500", "142857.027500", "142859.027500", "142901.027500", "142903.027500", "142905.027500", "142907.027500", "142909.027500", "142911.027500", "142913.027500", "142915.027500", "142917.027500", "142919.027500", "142921.027500", "142923.027500", "142925.027500", "142927.027500", "142929.027500", "142931.027500", "142933.027500", "142935.027500", "142937.027500", "142939.027500", "142941.027500", "142943.027500", "142945.027500", "142947.027500", "142949.027500", "142951.027500", "142953.027500", "142955.027500", "142957.027500", "142959.027500", "143001.027500", "143003.027500", "143005.027500", "143007.027500", "143009.027500", "143011.027500", "143013.027500", "143015.027500", "143017.027500", "143019.027500", "143021.027500", "143023.027500", "143025.027500", "143027.027500", "143029.027500", "143031.027500", "143033.027500", "143035.027500", "143037.027500", "143039.027500", "143041.027500", "143043.027500", "143045.027500", "143047.027500", "143049.027500", "143051.027500", "143053.027500", "143055.027500", "143057.027500", "143059.027500", "143101.027500", "143103.027500", "143105.027500", "143107.027500", "143109.027500", "143111.027500", "143113.027500", "143115.027500", "143117.027500", "143119.027500", "143121.027500", "143123.027500", "143125.027500", "143127.027500", "143129.027500", "143131.027500", "143133.027500", "143135.027500", "143137.027500", "143139.027500", "143141.027500", "143143.027500", "143145.027500", "143147.027500", "143149.027500", "143151.027500", "143153.027500", "143155.027500", "143157.027500", "143159.027500", "143201.027500", "143203.027500", "143205.027500", "143207.027500", "143209.027500", "143211.027500", "143213.027500", "143215.027500", "143217.027500", "143219.027500", "143221.027500", "143223.027500", "143225.027500", "143227.027500", "143229.027500", "143231.027500", "143233.027500", "143235.027500", "143237.027500", "143239.027500", "143241.027500", "143243.027500", "143245.027500", "143247.027500", "143249.027500", "143251.027500", "143253.027500", "143255.027500", "143257.027500", "143259.027500", "143301.027500", "143303.027500", "143305.027500", "143307.027500", "143309.027500", "143311.027500", "143313.027500", "143315.027500", "143317.027500", "143319.027500", "143321.027500", "143323.027500", "143325.027500", "143327.027500", "143329.027500", "143331.027500", "143333.027500", "143335.027500", "143337.027500", "143339.027500", "143341.027500", "143343.027500", "143345.027500", "143347.027500", "143349.027500", "143351.027500", "143353.027500", "143355.027500", "143357.027500", "143359.027500", "143401.027500", "143403.027500", "143405.027500", "143407.027500", "143409.027500", "143411.027500", "143413.027500", "143415.027500", "143417.027500", "143419.027500", "143421.027500", "143423.027500", "143425.027500", "143427.027500", "143429.027500", "143431.027500", "143433.027500", "143435.027500", "143437.027500", "143439.027500", "143441.027500", "143443.027500", "143445.027500", "143447.027500", "143449.027500", "143451.027500", "143453.027500", "143455.027500", "143457.027500", "143459.027500", "143501.027500", "143503.027500", "143505.027500", "143507.027500", "143509.027500", "143511.027500", "143513.027500", "143515.027500", "143517.027500", "143519.027500", "143521.027500", "143523.027500", "143525.027500", "143527.027500", "143529.027500", "143531.027500", "143533.027500", "143535.027500", "143537.027500", "143539.027500", "143541.027500", "143543.027500", "143545.027500", "143547.027500", "143549.027500", "143551.027500", "143553.027500", "143555.027500", "143557.027500", "143559.027500", "143601.027500", "143603.027500", "143605.027500", "143607.027500", "143609.027500", "143611.027500", "143613.027500", "143615.027500", "143617.027500", "143619.027500", "143621.027500", "143623.027500", "143625.027500", "143627.027500", "143629.027500", "143631.027500", "143633.027500", "143635.027500", "143637.027500", "143639.027500", "143641.027500", "143643.027500", "143645.027500", "143647.027500", "143649.027500", "143651.027500", "143653.027500", "143655.027500", "143657.027500", "143659.027500", "143701.027500", "143703.027500", "143705.027500", "143707.027500", "143709.027500", "143711.027500", "143713.027500", "143715.027500", "143717.027500", "143719.027500", "143721.027500", "143723.027500", "143725.027500", "143727.027500", "143729.027500", "143731.027500", "143733.027500", "143735.027500", "143737.027500", "143739.027500", "143741.027500", "143743.027500", "143745.027500", "143747.027500", "143749.027500", "143751.027500", "143753.027500", "143755.027500", "143757.027500", "143759.027500", "143801.027500", "143803.027500", "143805.027500", "143807.027500", "143809.027500", "143811.027500", "143813.027500", "143815.027500", "143817.027500", "143819.027500", "143821.027500", "143823.027500", "143825.027500", "143827.027500", "143829.027500", "143831.027500", "143833.027500", "143835.027500", "143837.027500", "143839.027500", "143841.027500", "143843.027500", "143845.027500", "143847.027500", "143849.027500", "143851.027500", "143853.027500", "143855.027500", "143857.027500", "143859.027500", "143901.027500", "143903.027500", "143905.027500", "143907.027500", "143909.027500", "143911.027500", "143913.027500", "143915.027500", "143917.027500", "143919.027500", "143921.027500", "143923.027500", "143925.027500", "143927.027500", "143929.027500", "143931.027500", "143933.027500", "143935.027500", "143937.027500", "143939.027500", "143941.027500", "143943.027500", "143945.027500", "143947.027500", "143949.027500", "143951.027500", "143953.027500", "143955.027500", "143957.027500", "143959.027500", "144001.027500", "144003.027500", "144005.027500", "144007.027500", "144009.027500", "144011.027500", "144013.027500", "144015.027500", "144017.027500", "144019.027500", "144021.027500", "144023.027500", "144025.027500", "144027.027500", "144029.027500", "144031.027500", "144033.027500", "144035.027500", "144037.027500", "144039.027500", "144041.027500", "144043.027500", "144045.027500", "144047.027500", "144049.027500", "144051.027500", "144053.027500", "144055.027500", "144057.027500", "144059.027500", "144101.027500", "144103.027500", "144105.027500", "144107.027500", "144109.027500", "144111.027500", "144113.027500", "144115.027500", "144117.027500", "144119.027500", "144121.027500", "144123.027500", "144125.027500", "144127.027500", "144129.027500", "144131.027500", "144133.027500", "144135.027500", "144137.027500", "144139.027500", "144141.027500", "144143.027500", "144145.027500", "144147.027500", "144149.027500", "144151.027500", "144153.027500", "144155.027500", "144157.027500", "144159.027500", "144201.027500", "144203.027500", "144205.027500", "144207.027500", "144209.027500", "144211.027500", "144213.027500", "144215.027500", "144217.027500", "144219.027500", "144221.027500", "144223.027500", "144225.027500", "144227.027500", "144229.027500", "144231.027500", "144233.027500", "144235.027500", "144237.027500", "144239.027500", "144241.027500", "144243.027500", "144245.027500", "144247.027500", "144249.027500", "144251.027500", "144253.027500", "144255.027500", "144257.027500", "144259.027500", "144301.027500", "144303.027500", "144305.027500", "144307.027500", "144309.027500", "144311.027500", "144313.027500", "144315.027500", "144317.027500", "144319.027500", "144321.027500", "144323.027500", "144325.027500", "144327.027500", "144329.027500", "144331.027500", "144333.027500", "144335.027500", "144337.027500", "144339.027500", "144341.027500", "144343.027500", "144345.027500", "144347.027500", "144349.027500", "144351.027500", "144353.027500", "144355.027500", "144357.027500", "144359.027500", "144401.027500", "144403.027500", "144405.027500", "144407.027500", "144409.027500", "144411.027500", "144413.027500", "144415.027500", "144417.027500", "144419.027500", "144421.027500", "144423.027500", "144425.027500", "144427.027500", "144429.027500", "144431.027500", "144433.027500", "144435.027500", "144437.027500", "144439.027500", "144441.027500", "144443.027500", "144445.027500", "144447.027500"],
      "ContentTime": ["142842.067000", "142842.070000", "142842.073000", "142842.075000", "142842.078000", "142842.081000", "142842.083000", "142842.086000", "142842.088000", "142842.091000", "142922.031000", "142922.034000", "142922.037000", "142922.039000", "142922.042000", "142922.045000", "142922.047000", "142922.054000", "142922.057000", "142922.059000", "142922.062000", "142922.064000", "142922.067000", "142922.069000", "142922.072000", "142922.074000", "142922.077000", "142922.080000", "142922.082000", "142922.085000", "143002.033000", "143002.036000", "143002.038000", "143002.041000", "143002.043000", "143002.046000", "143002.048000", "143002.051000", "143002.053000", "143002.056000", "143002.058000", "143002.061000", "143002.064000", "143002.066000", "143002.069000", "143002.071000", "143002.074000", "143002.077000", "143002.079000", "143002.081000", "143042.032000", "143042.035000", "143042.038000", "143042.040000", "143042.043000", "143042.046000", "143042.048000", "143042.051000", "143042.058000", "143042.061000", "143042.063000", "143042.066000", "143042.068000", "143042.071000", "143042.073000", "143042.076000", "143042.078000", "143042.081000", "143042.084000", "143042.086000", "143122.031000", "143122.034000", "143122.037000", "143122.039000", "143122.042000", "143122.044000", "143122.047000", "143122.053000", "143122.055000", "143122.058000", "143122.060000", "143122.063000", "143122.066000", "143122.068000", "143122.071000", "143122.073000", "143122.076000", "143122.078000", "143122.081000", "143122.083000", "143202.032000", "143202.035000", "143202.037000", "143202.040000", "143202.042000", "143202.045000", "143202.047000", "143202.050000", "143202.052000", "143202.055000", "143202.058000", "143202.060000", "143202.063000", "143202.065000", "143202.068000", "143202.070000", "143202.073000", "143202.075000", "143202.079000", "143202.081000", "143242.032000", "143242.035000", "143242.038000", "143242.040000", "143242.043000", "143242.046000", "143242.048000", "143242.051000", "143242.053000", "143242.056000", "143242.058000", "143242.061000", "143242.063000", "143242.070000", "143242.072000", "143242.075000", "143242.077000", "143242.080000", "143242.083000", "143242.085000", "143322.033000", "143322.035000", "143322.038000", "143322.040000", "143322.043000", "143322.046000", "143322.048000", "143322.051000", "143322.053000", "143322.056000", "143322.058000", "143322.061000", "143322.063000", "143322.066000", "143322.069000", "143322.071000", "143322.074000", "143322.076000", "143322.079000", "143322.081000", "143402.032000", "143402.034000", "143402.037000", "143402.040000", "143402.042000", "143402.045000", "143402.047000", "143402.050000", "143402.052000", "143402.055000", "143402.057000", "143402.060000", "143402.062000", "143402.065000", "143402.078000", "143402.081000", "143402.083000", "143402.086000", "143402.088000", "143402.091000", "143442.032000", "143442.035000", "143442.038000", "143442.040000", "143442.043000", "143442.046000", "143442.048000", "143442.051000", "143442.053000", "143442.056000", "143442.058000", "143442.061000", "143442.063000", "143442.066000", "143442.068000", "143442.071000", "143442.073000", "143442.076000", "143442.079000", "143442.081000", "143522.033000", "143522.036000", "143522.038000", "143522.041000", "143522.043000", "143522.046000", "143522.049000", "143522.051000", "143522.054000", "143522.056000", "143522.059000", "143522.061000", "143522.064000", "143522.067000", "143522.069000", "143522.072000", "143522.074000", "143522.077000", "143522.080000", "143522.082000", "143602.031000", "143602.034000", "143602.037000", "143602.039000", "143602.042000", "143602.045000", "143602.047000", "143602.050000", "143602.052000", "143602.055000", "143602.057000", "143602.060000", "143602.063000", "143602.065000", "143602.068000", "143602.070000", "143602.073000", "143602.075000", "143602.078000", "143602.080000", "143642.032000", "143642.035000", "143642.038000", "143642.040000", "143642.043000", "143642.045000", "143642.048000", "143642.051000", "143642.053000", "143642.056000", "143642.058000", "143642.061000", "143642.063000", "143642.066000", "143642.068000", "143642.071000", "143642.073000", "143642.076000", "143642.078000", "143642.081000", "143722.033000", "143722.035000", "143722.038000", "143722.040000", "143722.043000", "143722.046000", "143722.048000", "143722.051000", "143722.053000", "143722.056000", "143722.059000", "143722.061000", "143722.064000", "143722.066000", "143722.069000", "143722.071000", "143722.074000", "143722.084000", "143722.087000", "143722.089000", "143802.032000", "143802.035000", "143802.038000", "143802.041000", "143802.043000", "143802.046000", "143802.048000", "143802.051000", "143802.054000", "143802.056000", "143802.059000", "143802.061000", "143802.064000", "143802.066000", "143802.069000", "143802.072000", "143802.074000", "143802.077000", "143802.079000", "143802.082000", "143842.031000", "143842.034000", "143842.037000", "143842.039000", "143842.042000", "143842.045000", "143842.047000", "143842.050000", "143842.052000", "143842.055000", "143842.057000", "143842.060000", "143842.063000", "143842.065000", "143842.068000", "143842.070000", "143842.073000", "143842.075000", "143842.078000", "143842.080000", "143922.032000", "143922.035000", "143922.038000", "143922.040000", "143922.043000", "143922.046000", "143922.048000", "143922.051000", "143922.053000", "143922.056000", "143922.058000", "143922.061000", "143922.063000", "143922.066000", "143922.069000", "143922.071000", "143922.074000", "143922.080000", "143922.082000", "143922.085000", "144002.032000", "144002.035000", "144002.038000", "144002.040000", "144002.043000", "144002.045000", "144002.048000", "144002.051000", "144002.053000", "144002.056000", "144002.058000", "144002.061000", "144002.063000", "144002.066000", "144002.069000", "144002.071000", "144002.074000", "144002.076000", "144002.079000", "144002.081000", "144042.032000", "144042.034000", "144042.037000", "144042.039000", "144042.042000", "144042.045000", "144042.047000", "144042.064000", "144042.067000", "144042.069000", "144042.072000", "144042.075000", "144042.077000", "144042.080000", "144042.083000", "144042.085000", "144042.088000", "144042.090000", "144042.093000", "144042.095000", "144122.033000", "144122.036000", "144122.038000", "144122.041000", "144122.043000", "144122.046000", "144122.048000", "144122.051000", "144122.054000", "144122.056000", "144122.059000", "144122.061000", "144122.064000", "144122.066000", "144122.069000", "144122.071000", "144122.074000", "144122.076000", "144122.079000", "144122.083000", "144202.032000", "144202.035000", "144202.038000", "144202.040000", "144202.043000", "144202.046000", "144202.048000", "144202.051000", "144202.053000", "144202.056000", "144202.059000", "144202.061000", "144202.064000", "144202.066000", "144202.069000", "144202.071000", "144202.074000", "144202.076000", "144202.079000", "144202.081000", "144242.031000", "144242.034000", "144242.037000", "144242.039000", "144242.042000", "144242.045000", "144242.047000", "144242.050000", "144242.052000", "144242.055000", "144242.057000", "144242.060000", "144242.063000", "144242.065000", "144242.068000", "144242.070000", "144242.073000", "144242.075000", "144242.078000", "144242.080000", "144322.032000", "144322.034000", "144322.037000", "144322.040000", "144322.042000", "144322.045000", "144322.047000", "144322.050000", "144322.052000", "144322.055000", "144322.057000", "144322.060000", "144322.063000", "144322.065000", "144322.068000", "144322.070000", "144322.073000", "144322.075000", "144322.078000", "144322.080000", "144402.033000", "144402.036000", "144402.038000", "144402.041000", "144402.043000", "144402.046000", "144402.048000", "144402.051000", "144402.053000", "144402.056000", "144402.059000", "144402.061000", "144402.064000", "144402.066000", "144402.069000", "144402.071000", "144402.074000", "144402.077000", "144402.079000", "144402.082000", "144442.033000", "144442.036000", "144442.038000", "144442.041000", "144442.043000", "144442.046000", "144442.048000", "144442.051000", "144442.053000", "144442.056000", "144442.058000", "144442.061000", "144442.064000", "144442.066000", "144442.069000", "144442.071000", "144442.074000", "144442.076000", "144442.079000", "144442.081000", "144451.515000", "144451.520000", "144451.522000", "144451.525000"],
