{
  "AcquisitionMatrixPE": 96,
  "AcquisitionNumber": 1,
  "AcquisitionTime": "15:31:10.150000",
  "BandwidthPerPixelPhaseEncode": 20.425,
  "BaseResolution": 96,
  "BodyPartExamined": "BRAIN",
  "CoilCombinationMethod": "Sum of Squares",
  "ConsistencyInfo": "N4_VE11C_LATEST_20160120",
  "ConversionSoftware": "dcm2niix",
  "ConversionSoftwareVersion": "v1.0.20211006",
  "DerivedVendorReportedEchoSpacing": 0.000509996,
  "DeviceSerialNumber": "166054",
  "DwellTime": 2.3e-06,
  "EchoTime": 0.03,
  "EchoTrainLength": 96,
  "EffectiveEchoSpacing": 0.000509996,
  "FlipAngle": 75,
  "HeudiconvVersion": "0.11.3+d20220512",
  "ImageComments": "Unaliased MB2/PE2",
  "ImageOrientationPatientDICOM": [0.996842, -0.0505573, -0.0612315, 0.0356815, 0.974078, -0.223381],
  "ImageOrientationText": "Tra>Cor(-12.8)>Sag(-4.1)",
  "ImageType": [
    "ORIGINAL",
    "PRIMARY",
    "M",
    "MB",
    "ND",
    "MOSAIC"
],
  "ImagingFrequency": 123.26,
  "InPlanePhaseEncodingDirectionDICOM": "COL",
  "InstitutionAddress": "Street StreetNo,City,District,IL,ZIP",
  "InstitutionName": "Weizmann Institute",
  "InstitutionalDepartmentName": "Department",
  "MRAcquisitionType": "2D",
  "MagneticFieldStrength": 3,
  "Manufacturer": "Siemens",
  "ManufacturersModelName": "Prisma",
  "MatrixCoilMode": "SENSE",
  "Modality": "MR",
  "MultibandAccelerationFactor": 2,
  "PartialFourier": 1,
  "PatientPosition": "HFS",
  "PercentPhaseFOV": 100,
  "PercentSampling": 100,
  "PhaseEncodingDirection": "j-",
  "PhaseEncodingSteps": 96,
  "PhaseResolution": 1,
  "PixelBandwidth": 2265,
  "ProcedureStepDescription": "Weizmann^Sobel",
  "ProtocolName": "EPI_PSAP_iso2.5",
  "PulseSequenceDetails": "%CustomerSeq%\\cmrr_mbep2d_bold",
  "ReceiveCoilActiveElements": "HEA;HEP",
  "ReceiveCoilName": "Head_32",
  "ReconMatrixPE": 96,
  "RepetitionTime": 2,
  "SAR": 0.0988553,
  "ScanOptions": "FS",
  "ScanningSequence": "EP",
  "SequenceName": "epfid2d1_96",
  "SequenceVariant": "SK\\SS",
  "SeriesDescription": "EPI_PSAP_iso2.5",
  "SeriesNumber": 6,
  "ShimSetting": [5884, -4091, -1858, 415, 71, -90, 82, 73],
  "SliceThickness": 2.5,
  "SliceTiming": [0, 0.92, 1.8375, 0.7775, 1.6975, 0.6375, 1.555, 0.495, 1.415, 0.3525, 1.2725, 0.2125, 1.1325, 0.07, 0.99, 1.91, 0.8475, 1.7675, 0.7075, 1.6275, 0.565, 1.485, 0.425, 1.3425, 0.2825, 1.2025, 0.1425, 1.06, 0, 0.92, 1.8375, 0.7775, 1.6975, 0.6375, 1.555, 0.495, 1.415, 0.3525, 1.2725, 0.2125, 1.1325, 0.07, 0.99, 1.91, 0.8475, 1.7675, 0.7075, 1.6275, 0.565, 1.485, 0.425, 1.3425, 0.2825, 1.2025, 0.1425, 1.06],
  "SoftwareVersions": "syngo MR E11",
  "SpacingBetweenSlices": 2.5,
  "StationName": "AWP166054",
  "TaskName": "PSAP",
  "TotalReadoutTime": 0.0484496,
  "TxRefAmp": 248.4,
  "VendorReportedEchoSpacing": 0.00051,
  "WipMemBlock": "782f06c0-d847-437a-b0f4-9ff4b6b5754c||Sequence: R016 ve11c/master r/e634e98; Dec 19 2017 11:00:25 by eja",
  "dcmmeta_affine": [
    [-2.4921059608459473, 0.08920367807149887, -0.177344411611557, 121.85881042480469],
    [0.1263931840658188, 2.435194969177246, -0.5512260794639587, -106.07125854492188],
    [-0.15307871997356415, 0.5584515929222107, 2.4320154190063477, -92.59700775146484],
    [0.0, 0.0, 0.0, 1.0]
],
  "dcmmeta_reorient_transform": [
    [0.0, -1.0, 0.0, 95.0],
    [1.0, 0.0, 0.0, 0.0],
    [0.0, 0.0, 1.0, 0.0],
    [0.0, 0.0, 0.0, 1.0]
],
  "dcmmeta_shape": [96, 96, 56, 496],
  "dcmmeta_slice_dim": 2,
  "dcmmeta_version": 0.6,
  "global": {
    "const": {
      "AcquisitionMatrix": [96, 0, 0, 96],
      "AngioFlag": "N",
      "BitsAllocated": 16,
      "BitsStored": 16,
      "BodyPartExamined": "BRAIN",
      "Columns": 768,
      "EchoNumbers": 1,
      "EchoTime": 30.0,
      "EchoTrainLength": 96,
      "FlipAngle": 75.0,
      "HighBit": 15,
      "ImageOrientationPatient": [0.99684234782992, -0.0505572758905, -0.0612314904888, 0.03568147023226, 0.97407798774627, -0.2233806313677],
      "ImagePositionPatient": [-997.65317034381, -901.02966289208, 199.53007381085],
      "ImageType": [
        "ORIGINAL",
        "PRIMARY",
        "M",
        "MB",
        "ND",
        "MOSAIC"
],
      "ImagedNucleus": "1H",
      "ImagingFrequency": 123.260284,
      "InPlanePhaseEncodingDirection": "COL",
      "MRAcquisitionType": "2D",
      "MagneticFieldStrength": 3.0,
      "Manufacturer": "SIEMENS",
      "ManufacturerModelName": "Prisma",
      "Modality": "MR",
      "NumberOfAverages": 1.0,
      "NumberOfPhaseEncodingSteps": 96,
      "PercentPhaseFieldOfView": 100.0,
      "PercentSampling": 100.0,
      "PerformedProcedureStepStartTime": "143958.418000",
      "PhotometricInterpretation": "MONOCHROME2",
      "PixelBandwidth": 2265.0,
      "PixelRepresentation": 0,
      "PixelSpacing": [2.5, 2.5],
      "ProtocolName": "EPI_PSAP_iso2.5",
      "RepetitionTime": 2000.0,
      "Rows": 768,
      "SAR": 0.09885532128742,
      "SamplesPerPixel": 1,
      "ScanOptions": "FS",
      "ScanningSequence": "EP",
      "SequenceName": "epfid2d1_96",
      "SequenceVariant": [
        "SK",
        "SS"
],
      "SeriesDescription": "EPI_PSAP_iso2.5",
      "SeriesNumber": 6,
      "SeriesTime": "153206.453000",
      "SliceLocation": -75.335632159468,
      "SliceThickness": 2.5,
      "SmallestImagePixelValue": 0,
      "SoftwareVersions": "syngo MR E11",
      "SpacingBetweenSlices": 2.5000000024704,
      "SpecificCharacterSet": "ISO_IR 100",
      "StudyID": "1",
      "StudyTime": "143958.367000",
      "TransmitCoilName": "Body",
      "VariableFlipAngleFlag": "N",
      "WindowCenterWidthExplanation": "Algo1",
      "dBdt": 0.0},
    "slices": {}
  },
  "time": {
    "samples": {
      "AcquisitionNumber": [1, 2, 3, 4, 5, 6, 7, 8, 9, 10, 11, 12, 13, 14, 15, 16, 17, 18, 19, 20, 21, 22, 23, 24, 25, 26, 27, 28, 29, 30, 31, 32, 33, 34, 35, 36, 37, 38, 39, 40, 41, 42, 43, 44, 45, 46, 47, 48, 49, 50, 51, 52, 53, 54, 55, 56, 57, 58, 59, 60, 61, 62, 63, 64, 65, 66, 67, 68, 69, 70, 71, 72, 73, 74, 75, 76, 77, 78, 79, 80, 81, 82, 83, 84, 85, 86, 87, 88, 89, 90, 91, 92, 93, 94, 95, 96, 97, 98, 99, 100, 101, 102, 103, 104, 105, 106, 107, 108, 109, 110, 111, 112, 113, 114, 115, 116, 117, 118, 119, 120, 121, 122, 123, 124, 125, 126, 127, 128, 129, 130, 131, 132, 133, 134, 135, 136, 137, 138, 139, 140, 141, 142, 143, 144, 145, 146, 147, 148, 149, 150, 151, 152, 153, 154, 155, 156, 157, 158, 159, 160, 161, 162, 163, 164, 165, 166, 167, 168, 169, 170, 171, 172, 173, 174, 175, 176, 177, 178, 179, 180, 181, 182, 183, 184, 185, 186, 187, 188, 189, 190, 191, 192, 193, 194, 195, 196, 197, 198, 199, 200, 201, 202, 203, 204, 205, 206, 207, 208, 209, 210, 211, 212, 213, 214, 215, 216, 217, 218, 219, 220, 221, 222, 223, 224, 225, 226, 227, 228, 229, 230, 231, 232, 233, 234, 235, 236, 237, 238, 239, 240, 241, 242, 243, 244, 245, 246, 247, 248, 249, 250, 251, 252, 253, 254, 255, 256, 257, 258, 259, 260, 261, 262, 263, 264, 265, 266, 267, 268, 269, 270, 271, 272, 273, 274, 275, 276, 277, 278, 279, 280, 281, 282, 283, 284, 285, 286, 287, 288, 289, 290, 291, 292, 293, 294, 295, 296, 297, 298, 299, 300, 301, 302, 303, 304, 305, 306, 307, 308, 309, 310, 311, 312, 313, 314, 315, 316, 317, 318, 319, 320, 321, 322, 323, 324, 325, 326, 327, 328, 329, 330, 331, 332, 333, 334, 335, 336, 337, 338, 339, 340, 341, 342, 343, 344, 345, 346, 347, 348, 349, 350, 351, 352, 353, 354, 355, 356, 357, 358, 359, 360, 361, 362, 363, 364, 365, 366, 367, 368, 369, 370, 371, 372, 373, 374, 375, 376, 377, 378, 379, 380, 381, 382, 383, 384, 385, 386, 387, 388, 389, 390, 391, 392, 393, 394, 395, 396, 397, 398, 399, 400, 401, 402, 403, 404, 405, 406, 407, 408, 409, 410, 411, 412, 413, 414, 415, 416, 417, 418, 419, 420, 421, 422, 423, 424, 425, 426, 427, 428, 429, 430, 431, 432, 433, 434, 435, 436, 437, 438, 439, 440, 441, 442, 443, 444, 445, 446, 447, 448, 449, 450, 451, 452, 453, 454, 455, 456, 457, 458, 459, 460, 461, 462, 463, 464, 465, 466, 467, 468, 469, 470, 471, 472, 473, 474, 475, 476, 477, 478, 479, 480, 481, 482, 483, 484, 485, 486, 487, 488, 489, 490, 491, 492, 493, 494, 495, 496],
      "AcquisitionTime": ["153110.150000", "153112.150000", "153114.150000", "153116.150000", "153118.150000", "153120.150000", "153122.150000", "153124.150000", "153126.150000", "153128.150000", "153130.150000", "153132.150000", "153134.150000", "153136.150000", "153138.150000", "153140.150000", "153142.150000", "153144.150000", "153146.150000", "153148.150000", "153150.150000", "153152.150000", "153154.150000", "153156.150000", "153158.150000", "153200.150000", "153202.150000", "153204.150000", "153206.150000", "153208.150000", "153210.150000", "153212.150000", "153214.150000", "153216.150000", "153218.150000", "153220.150000", "153222.150000", "153224.150000", "153226.150000", "153228.150000", "153230.150000", "153232.150000", "153234.150000", "153236.150000", "153238.150000", "153240.150000", "153242.150000", "153244.150000", "153246.150000", "153248.150000", "153250.150000", "153252.150000", "153254.150000", "153256.150000", "153258.150000", "153300.150000", "153302.150000", "153304.150000", "153306.150000", "153308.150000", "153310.150000", "153312.150000", "153314.150000", "153316.150000", "153318.150000", "153320.150000", "153322.150000", "153324.150000", "153326.150000", "153328.150000", "153330.150000", "153332.150000", "153334.150000", "153336.150000", "153338.150000", "153340.150000", "153342.150000", "153344.150000", "153346.150000", "153348.150000", "153350.150000", "153352.150000", "153354.150000", "153356.150000", "153358.150000", "153400.150000", "153402.150000", "153404.150000", "153406.150000", "153408.150000", "153410.150000", "153412.150000", "153414.150000", "153416.150000", "153418.150000", "153420.150000", "153422.150000", "153424.150000", "153426.150000", "153428.150000", "153430.150000", "153432.150000", "153434.150000", "153436.150000", "153438.150000", "153440.150000", "153442.150000", "153444.150000", "153446.150000", "153448.150000", "153450.150000", "153452.150000", "153454.150000", "153456.150000", "153458.150000", "153500.150000", "153502.150000", "153504.150000", "153506.150000", "153508.150000", "153510.150000", "153512.150000", "153514.150000", "153516.150000", "153518.150000", "153520.150000", "153522.150000", "153524.150000", "153526.150000", "153528.150000", "153530.150000", "153532.150000", "153534.150000", "153536.150000", "153538.150000", "153540.150000", "153542.150000", "153544.150000", "153546.150000", "153548.150000", "153550.150000", "153552.150000", "153554.150000", "153556.150000", "153558.150000", "153600.150000", "153602.150000", "153604.150000", "153606.150000", "153608.150000", "153610.150000", "153612.150000", "153614.150000", "153616.150000", "153618.150000", "153620.150000", "153622.150000", "153624.150000", "153626.150000", "153628.150000", "153630.150000", "153632.150000", "153634.150000", "153636.150000", "153638.150000", "153640.150000", "153642.150000", "153644.150000", "153646.150000", "153648.150000", "153650.150000", "153652.150000", "153654.150000", "153656.150000", "153658.150000", "153700.150000", "153702.150000", "153704.150000", "153706.150000", "153708.150000", "153710.150000", "153712.150000", "153714.150000", "153716.150000", "153718.150000", "153720.150000", "153722.150000", "153724.150000", "153726.150000", "153728.150000", "153730.150000", "153732.150000", "153734.150000", "153736.150000", "153738.150000", "153740.150000", "153742.150000", "153744.150000", "153746.150000", "153748.150000", "153750.150000", "153752.150000", "153754.150000", "153756.150000", "153758.150000", "153800.150000", "153802.150000", "153804.150000", "153806.150000", "153808.150000", "153810.150000", "153812.150000", "153814.150000", "153816.150000", "153818.150000", "153820.150000", "153822.150000", "153824.150000", "153826.150000", "153828.150000", "153830.150000", "153832.150000", "153834.150000", "153836.150000", "153838.150000", "153840.150000", "153842.150000", "153844.150000", "153846.150000", "153848.150000", "153850.150000", "153852.150000", "153854.150000", "153856.150000", "153858.150000", "153900.150000", "153902.150000", "153904.150000", "153906.150000", "153908.150000", "153910.150000", "153912.150000", "153914.150000", "153916.150000", "153918.150000", "153920.150000", "153922.150000", "153924.150000", "153926.150000", "153928.150000", "153930.150000", "153932.150000", "153934.150000", "153936.150000", "153938.150000", "153940.150000", "153942.150000", "153944.150000", "153946.150000", "153948.150000", "153950.150000", "153952.150000", "153954.150000", "153956.150000", "153958.150000", "154000.150000", "154002.150000", "154004.150000", "154006.150000", "154008.150000", "154010.150000", "154012.150000", "154014.150000", "154016.150000", "154018.150000", "154020.150000", "154022.150000", "154024.150000", "154026.150000", "154028.150000", "154030.150000", "154032.150000", "154034.150000", "154036.150000", "154038.150000", "154040.150000", "154042.150000", "154044.150000", "154046.150000", "154048.150000", "154050.150000", "154052.150000", "154054.150000", "154056.150000", "154058.150000", "154100.150000", "154102.150000", "154104.150000", "154106.150000", "154108.150000", "154110.150000", "154112.150000", "154114.150000", "154116.150000", "154118.150000", "154120.150000", "154122.150000", "154124.150000", "154126.150000", "154128.150000", "154130.150000", "154132.150000", "154134.150000", "154136.150000", "154138.150000", "154140.150000", "154142.150000", "154144.150000", "154146.150000", "154148.150000", "154150.150000", "154152.150000", "154154.150000", "154156.150000", "154158.150000", "154200.150000", "154202.150000", "154204.150000", "154206.150000", "154208.150000", "154210.150000", "154212.150000", "154214.150000", "154216.150000", "154218.150000", "154220.150000", "154222.150000", "154224.150000", "154226.150000", "154228.150000", "154230.150000", "154232.150000", "154234.150000", "154236.150000", "154238.150000", "154240.150000", "154242.150000", "154244.150000", "154246.150000", "154248.150000", "154250.150000", "154252.150000", "154254.150000", "154256.150000", "154258.150000", "154300.150000", "154302.150000", "154304.150000", "154306.150000", "154308.150000", "154310.150000", "154312.150000", "154314.150000", "154316.150000", "154318.150000", "154320.150000", "154322.150000", "154324.150000", "154326.150000", "154328.150000", "154330.150000", "154332.150000", "154334.150000", "154336.150000", "154338.150000", "154340.150000", "154342.150000", "154344.150000", "154346.150000", "154348.150000", "154350.150000", "154352.150000", "154354.150000", "154356.150000", "154358.150000", "154400.150000", "154402.150000", "154404.150000", "154406.150000", "154408.150000", "154410.150000", "154412.150000", "154414.150000", "154416.150000", "154418.150000", "154420.150000", "154422.150000", "154424.150000", "154426.150000", "154428.150000", "154430.150000", "154432.150000", "154434.150000", "154436.150000", "154438.150000", "154440.150000", "154442.150000", "154444.150000", "154446.150000", "154448.150000", "154450.150000", "154452.150000", "154454.150000", "154456.150000", "154458.150000", "154500.150000", "154502.150000", "154504.150000", "154506.150000", "154508.150000", "154510.150000", "154512.150000", "154514.150000", "154516.150000", "154518.150000", "154520.150000", "154522.150000", "154524.150000", "154526.150000", "154528.150000", "154530.150000", "154532.150000", "154534.150000", "154536.150000", "154538.150000", "154540.150000", "154542.150000", "154544.150000", "154546.150000", "154548.150000", "154550.150000", "154552.150000", "154554.150000", "154556.150000", "154558.150000", "154600.150000", "154602.150000", "154604.150000", "154606.150000", "154608.150000", "154610.150000", "154612.150000", "154614.150000", "154616.150000", "154618.150000", "154620.150000", "154622.150000", "154624.150000", "154626.150000", "154628.150000", "154630.150000", "154632.150000", "154634.150000", "154636.150000", "154638.150000", "154640.150000", "154642.150000", "154644.150000", "154646.150000", "154648.150000", "154650.150000", "154652.150000", "154654.150000", "154656.150000", "154658.150000", "154700.150000", "154702.150000", "154704.150000", "154706.150000", "154708.150000", "154710.150000", "154712.150000", "154714.150000", "154716.150000", "154718.150000", "154720.150000", "154722.150000", "154724.150000", "154726.150000", "154728.150000", "154730.150000", "154732.150000", "154734.150000", "154736.150000", "154738.150000", "154740.150000"],
      "ContentTime": ["153206.456000", "153206.459000", "153206.462000", "153206.474000", "153206.476000", "153206.479000", "153206.481000", "153206.484000", "153206.487000", "153206.489000", "153206.492000", "153206.494000", "153206.497000", "153206.499000", "153206.502000", "153206.505000", "153206.507000", "153206.510000", "153206.512000", "153206.515000", "153206.517000", "153206.520000", "153206.522000", "153206.525000", "153206.528000", "153206.530000", "153206.534000", "153246.424000", "153246.427000", "153246.430000", "153246.433000", "153246.435000", "153246.438000", "153246.441000", "153246.443000", "153246.446000", "153246.449000", "153246.451000", "153246.454000", "153246.456000", "153246.459000", "153246.462000", "153246.464000", "153246.467000", "153246.469000", "153246.472000", "153246.475000", "153326.424000", "153326.427000", "153326.430000", "153326.441000", "153326.443000", "153326.446000", "153326.448000", "153326.463000", "153326.465000", "153326.468000", "153326.470000", "153326.473000", "153326.475000", "153326.478000", "153326.480000", "153326.483000", "153326.486000", "153326.488000", "153326.491000", "153326.493000", "153406.425000", "153406.427000", "153406.430000", "153406.433000", "153406.435000", "153406.438000", "153406.440000", "153406.443000", "153406.445000", "153406.448000", "153406.450000", "153406.453000", "153406.456000", "153406.458000", "153406.461000", "153406.463000", "153406.466000", "153406.468000", "153406.471000", "153406.473000", "153446.424000", "153446.427000", "153446.430000", "153446.432000", "153446.435000", "153446.438000", "153446.440000", "153446.443000", "153446.445000", "153446.448000", "153446.450000", "153446.453000", "153446.456000", "153446.458000", "153446.461000", "153446.464000", "153446.474000", "153446.477000", "153446.479000", "153446.482000", "153526.424000", "153526.427000", "153526.430000", "153526.432000", "153526.435000", "153526.438000", "153526.440000", "153526.443000", "153526.445000", "153526.448000", "153526.450000", "153526.453000", "153526.456000", "153526.458000", "153526.466000", "153526.469000", "153526.471000", "153526.474000", "153526.476000", "153526.479000", "153606.424000", "153606.426000", "153606.429000", "153606.432000", "153606.434000", "153606.437000", "153606.439000", "153606.442000", "153606.444000", "153606.447000", "153606.450000", "153606.452000", "153606.455000", "153606.457000", "153606.460000", "153606.462000", "153606.465000", "153606.468000", "153606.470000", "153606.473000", "153646.425000", "153646.427000", "153646.430000", "153646.433000", "153646.435000", "153646.438000", "153646.441000", "153646.443000", "153646.446000", "153646.448000", "153646.451000", "153646.453000", "153646.456000", "153646.458000", "153646.461000", "153646.464000", "153646.466000", "153646.469000", "153646.471000", "153646.474000", "153726.425000", "153726.427000", "153726.430000", "153726.433000", "153726.435000", "153726.438000", "153726.440000", "153726.443000", "153726.446000", "153726.448000", "153726.451000", "153726.463000", "153726.465000", "153726.468000", "153726.470000", "153726.473000", "153726.476000", "153726.478000", "153726.481000", "153726.483000", "153806.425000", "153806.427000", "153806.430000", "153806.433000", "153806.435000", "153806.438000", "153806.440000", "153806.443000", "153806.446000", "153806.448000", "153806.451000", "153806.453000", "153806.456000", "153806.459000", "153806.461000", "153806.464000", "153806.466000", "153806.469000", "153806.471000", "153806.474000", "153846.425000", "153846.427000", "153846.430000", "153846.433000", "153846.435000", "153846.438000", "153846.440000", "153846.443000", "153846.445000", "153846.448000", "153846.450000", "153846.453000", "153846.456000", "153846.458000", "153846.461000", "153846.464000", "153846.466000", "153846.469000", "153846.471000", "153846.474000", "153926.425000", "153926.427000", "153926.430000", "153926.433000", "153926.435000", "153926.438000", "153926.451000", "153926.454000", "153926.456000", "153926.459000", "153926.461000", "153926.464000", "153926.467000", "153926.469000", "153926.472000", "153926.474000", "153926.477000", "153926.479000", "153926.482000", "153926.485000", "154006.425000", "154006.427000", "154006.430000", "154006.433000", "154006.435000", "154006.438000", "154006.440000", "154006.443000", "154006.445000", "154006.448000", "154006.450000", "154006.453000", "154006.456000", "154006.458000", "154006.461000", "154006.463000", "154006.466000", "154006.468000", "154006.471000", "154006.474000", "154046.424000", "154046.426000", "154046.429000", "154046.431000", "154046.434000", "154046.437000", "154046.439000", "154046.442000", "154046.444000", "154046.447000", "154046.449000", "154046.452000", "154046.455000", "154046.457000", "154046.460000", "154046.462000", "154046.465000", "154046.467000", "154046.470000", "154046.472000", "154126.425000", "154126.427000", "154126.430000", "154126.433000", "154126.436000", "154126.438000", "154126.441000", "154126.443000", "154126.446000", "154126.448000", "154126.451000", "154126.454000", "154126.456000", "154126.459000", "154126.461000", "154126.464000", "154126.466000", "154126.469000", "154126.472000", "154126.474000", "154206.424000", "154206.427000", "154206.430000", "154206.432000", "154206.435000", "154206.437000", "154206.440000", "154206.443000", "154206.445000", "154206.448000", "154206.450000", "154206.453000", "154206.455000", "154206.458000", "154206.461000", "154206.463000", "154206.466000", "154206.468000", "154206.471000", "154206.474000", "154246.424000", "154246.427000", "154246.430000", "154246.433000", "154246.435000", "154246.438000", "154246.440000", "154246.443000", "154246.445000", "154246.448000", "154246.451000", "154246.453000", "154246.456000", "154246.458000", "154246.461000", "154246.464000", "154246.466000", "154246.469000", "154246.471000", "154246.474000", "154326.425000", "154326.427000", "154326.430000", "154326.433000", "154326.435000", "154326.438000", "154326.440000", "154326.443000", "154326.446000", "154326.448000", "154326.451000", "154326.453000", "154326.456000", "154326.459000", "154326.461000", "154326.464000", "154326.466000", "154326.469000", "154326.471000", "154326.474000", "154406.425000", "154406.427000", "154406.430000", "154406.433000", "154406.435000", "154406.438000", "154406.440000", "154406.443000", "154406.446000", "154406.448000", "154406.451000", "154406.454000", "154406.456000", "154406.459000", "154406.461000", "154406.464000", "154406.466000", "154406.469000", "154406.471000", "154406.474000", "154446.425000", "154446.427000", "154446.430000", "154446.433000", "154446.435000", "154446.438000", "154446.441000", "154446.443000", "154446.446000", "154446.448000", "154446.451000", "154446.454000", "154446.456000", "154446.459000", "154446.461000", "154446.464000", "154446.466000", "154446.469000", "154446.471000", "154446.474000", "154526.423000", "154526.426000", "154526.429000", "154526.431000", "154526.434000", "154526.437000", "154526.439000", "154526.442000", "154526.444000", "154526.447000", "154526.449000", "154526.452000", "154526.454000", "154526.457000", "154526.460000", "154526.462000", "154526.465000", "154526.467000", "154526.470000", "154526.483000", "154606.425000", "154606.428000", "154606.430000", "154606.433000", "154606.436000", "154606.438000", "154606.441000", "154606.443000", "154606.446000", "154606.448000", "154606.451000", "154606.454000", "154606.456000", "154606.459000", "154606.461000", "154606.464000", "154606.466000", "154606.469000", "154606.471000", "154606.474000", "154646.425000", "154646.427000", "154646.430000", "154646.432000", "154646.435000", "154646.438000", "154646.440000", "154646.443000", "154646.446000", "154646.448000", "154646.451000", "154646.453000", "154646.456000", "154646.458000", "154646.461000", "154646.463000", "154646.466000", "154646.469000", "154646.471000", "154646.474000", "154726.425000", "154726.427000", "154726.430000", "154726.433000", "154726.435000", "154726.438000", "154726.441000", "154726.443000", "154726.446000", "154726.449000", "154726.451000", "154726.454000", "154726.456000", "154726.459000", "154726.461000", "154726.464000", "154726.467000", "154726.469000", "154726.472000", "154726.474000", "154742.668000", "154742.673000", "154742.676000", "154742.678000", "154742.681000", "154742.684000", "154742.686000", "154742.689000", "154742.691000"],
