{
  "AcquisitionMatrixPE": 96,
  "AcquisitionNumber": 1,
  "AcquisitionTime": "15:36:8.942500",
  "BandwidthPerPixelPhaseEncode": 20.425,
  "BaseResolution": 96,
  "BodyPartExamined": "BRAIN",
  "CoilCombinationMethod": "Sum of Squares",
  "ConsistencyInfo": "N4_VE11C_LATEST_20160120",
  "ConversionSoftware": "dcm2niix",
  "ConversionSoftwareVersion": "v1.0.20211006",
  "DerivedVendorReportedEchoSpacing": 0.000509996,
  "DeviceSerialNumber": "166054",
  "DwellTime": 2.3e-06,
  "EchoTime": 0.03,
  "EchoTrainLength": 96,
  "EffectiveEchoSpacing": 0.000509996,
  "FlipAngle": 75,
  "HeudiconvVersion": "0.11.3+d20220512",
  "ImageComments": "Unaliased MB2/PE2",
  "ImageOrientationPatientDICOM": [0.998447, -0.00267065, 0.0556548, 0.0287611, 0.880197, -0.473737],
  "ImageOrientationText": "Tra>Cor(-28.4)>Sag(2.7)",
  "ImageType": [
    "ORIGINAL",
    "PRIMARY",
    "M",
    "MB",
    "ND",
    "MOSAIC"
],
  "ImagingFrequency": 123.26,
  "InPlanePhaseEncodingDirectionDICOM": "COL",
  "InstitutionAddress": "Street StreetNo,City,District,IL,ZIP",
  "InstitutionName": "Weizmann Institute",
  "InstitutionalDepartmentName": "Department",
  "MRAcquisitionType": "2D",
  "MagneticFieldStrength": 3,
  "Manufacturer": "Siemens",
  "ManufacturersModelName": "Prisma",
  "MatrixCoilMode": "SENSE",
  "Modality": "MR",
  "MultibandAccelerationFactor": 2,
  "PartialFourier": 1,
  "PatientPosition": "HFS",
  "PercentPhaseFOV": 100,
  "PercentSampling": 100,
  "PhaseEncodingDirection": "j-",
  "PhaseEncodingSteps": 96,
  "PhaseResolution": 1,
  "PixelBandwidth": 2265,
  "ProcedureStepDescription": "Weizmann^Sobel",
  "ProtocolName": "EPI_PSAP_iso2.5",
  "PulseSequenceDetails": "%CustomerSeq%\\cmrr_mbep2d_bold",
  "ReceiveCoilActiveElements": "HEA;HEP",
  "ReceiveCoilName": "Head_32",
  "ReconMatrixPE": 96,
  "RepetitionTime": 2,
  "SAR": 0.0922016,
  "ScanOptions": "FS",
  "ScanningSequence": "EP",
  "SequenceName": "epfid2d1_96",
  "SequenceVariant": "SK\\SS",
  "SeriesDescription": "EPI_PSAP_iso2.5",
  "SeriesNumber": 6,
  "ShimSetting": [5923, -4081, -1901, 528, 65, -61, 182, 12],
  "SliceThickness": 2.5,
  "SliceTiming": [0, 0.9175, 1.8375, 0.7775, 1.695, 0.635, 1.555, 0.495, 1.4125, 0.3525, 1.2725, 0.2125, 1.13, 0.07, 0.99, 1.9075, 0.8475, 1.7675, 0.705, 1.625, 0.565, 1.485, 0.4225, 1.3425, 0.2825, 1.2, 0.14, 1.06, 0, 0.9175, 1.8375, 0.7775, 1.695, 0.635, 1.555, 0.495, 1.4125, 0.3525, 1.2725, 0.2125, 1.13, 0.07, 0.99, 1.9075, 0.8475, 1.7675, 0.705, 1.625, 0.565, 1.485, 0.4225, 1.3425, 0.2825, 1.2, 0.14, 1.06],
  "SoftwareVersions": "syngo MR E11",
  "SpacingBetweenSlices": 2.5,
  "StationName": "AWP166054",
  "TaskName": "PSAP",
  "TotalReadoutTime": 0.0484496,
  "TxRefAmp": 242.7,
  "VendorReportedEchoSpacing": 0.00051,
  "WipMemBlock": "7ec109dd-818a-47a2-9034-e35ae4ed8916||Sequence: R016 ve11c/master r/e634e98; Dec 19 2017 11:00:25 by eja",
  "dcmmeta_affine": [
    [-2.4961161613464355, 0.07190282642841339, 0.11930497735738754, 115.45791625976562],
    [0.006676619406789541, 2.200491189956665, -1.18650484085083, -66.79754638671875],
    [0.13913704454898834, 1.1843429803848267, 2.1972649097442627, -117.94116973876953],
    [0.0, 0.0, 0.0, 1.0]
],
  "dcmmeta_reorient_transform": [
    [0.0, -1.0, 0.0, 95.0],
    [1.0, 0.0, 0.0, 0.0],
    [0.0, 0.0, 1.0, 0.0],
    [0.0, 0.0, 0.0, 1.0]
],
  "dcmmeta_shape": [96, 96, 56, 496],
  "dcmmeta_slice_dim": 2,
  "dcmmeta_version": 0.6,
  "global": {
    "const": {
      "AcquisitionMatrix": [96, 0, 0, 96],
      "AngioFlag": "N",
      "BitsAllocated": 16,
      "BitsStored": 16,
      "BodyPartExamined": "BRAIN",
      "Columns": 768,
      "EchoNumbers": 1,
      "EchoTime": 30.0,
      "EchoTrainLength": 96,
      "FlipAngle": 75.0,
      "HighBit": 15,
      "ImageOrientationPatient": [0.99844649782511, -0.0026706478092, 0.05565481669237, 0.0287611308365, 0.88019650583961, -0.4737371723443],
      "ImagePositionPatient": [-985.14309360906, -879.37084192816, 345.76058501591],
      "ImageType": [
        "ORIGINAL",
        "PRIMARY",
        "M",
        "MB",
        "ND",
        "MOSAIC"
],
      "ImagedNucleus": "1H",
      "ImagingFrequency": 123.259954,
      "InPlanePhaseEncodingDirection": "COL",
      "MRAcquisitionType": "2D",
      "MagneticFieldStrength": 3.0,
      "Manufacturer": "SIEMENS",
      "ManufacturerModelName": "Prisma",
      "Modality": "MR",
      "NumberOfAverages": 1.0,
      "NumberOfPhaseEncodingSteps": 96,
      "PercentPhaseFieldOfView": 100.0,
      "PercentSampling": 100.0,
      "PerformedProcedureStepStartTime": "145046.518000",
      "PhotometricInterpretation": "MONOCHROME2",
      "PixelBandwidth": 2265.0,
      "PixelRepresentation": 0,
      "PixelSpacing": [2.5, 2.5],
      "ProtocolName": "EPI_PSAP_iso2.5",
      "RepetitionTime": 2000.0,
      "Rows": 768,
      "SAR": 0.0922015699697,
      "SamplesPerPixel": 1,
      "ScanOptions": "FS",
      "ScanningSequence": "EP",
      "SequenceName": "epfid2d1_96",
      "SequenceVariant": [
        "SK",
        "SS"
],
      "SeriesDescription": "EPI_PSAP_iso2.5",
      "SeriesNumber": 6,
      "SeriesTime": "153659.648000",
      "SliceLocation": -66.447069260256,
      "SliceThickness": 2.5,
      "SmallestImagePixelValue": 0,
      "SoftwareVersions": "syngo MR E11",
      "SpacingBetweenSlices": 2.5000000609059,
      "SpecificCharacterSet": "ISO_IR 100",
      "StudyID": "1",
      "StudyTime": "145046.397000",
      "TransmitCoilName": "Body",
      "VariableFlipAngleFlag": "N",
      "WindowCenterWidthExplanation": "Algo1",
      "dBdt": 0.0},
    "slices": {}
  },
  "time": {
    "samples": {
      "AcquisitionNumber": [1, 2, 3, 4, 5, 6, 7, 8, 9, 10, 11, 12, 13, 14, 15, 16, 17, 18, 19, 20, 21, 22, 23, 24, 25, 26, 27, 28, 29, 30, 31, 32, 33, 34, 35, 36, 37, 38, 39, 40, 41, 42, 43, 44, 45, 46, 47, 48, 49, 50, 51, 52, 53, 54, 55, 56, 57, 58, 59, 60, 61, 62, 63, 64, 65, 66, 67, 68, 69, 70, 71, 72, 73, 74, 75, 76, 77, 78, 79, 80, 81, 82, 83, 84, 85, 86, 87, 88, 89, 90, 91, 92, 93, 94, 95, 96, 97, 98, 99, 100, 101, 102, 103, 104, 105, 106, 107, 108, 109, 110, 111, 112, 113, 114, 115, 116, 117, 118, 119, 120, 121, 122, 123, 124, 125, 126, 127, 128, 129, 130, 131, 132, 133, 134, 135, 136, 137, 138, 139, 140, 141, 142, 143, 144, 145, 146, 147, 148, 149, 150, 151, 152, 153, 154, 155, 156, 157, 158, 159, 160, 161, 162, 163, 164, 165, 166, 167, 168, 169, 170, 171, 172, 173, 174, 175, 176, 177, 178, 179, 180, 181, 182, 183, 184, 185, 186, 187, 188, 189, 190, 191, 192, 193, 194, 195, 196, 197, 198, 199, 200, 201, 202, 203, 204, 205, 206, 207, 208, 209, 210, 211, 212, 213, 214, 215, 216, 217, 218, 219, 220, 221, 222, 223, 224, 225, 226, 227, 228, 229, 230, 231, 232, 233, 234, 235, 236, 237, 238, 239, 240, 241, 242, 243, 244, 245, 246, 247, 248, 249, 250, 251, 252, 253, 254, 255, 256, 257, 258, 259, 260, 261, 262, 263, 264, 265, 266, 267, 268, 269, 270, 271, 272, 273, 274, 275, 276, 277, 278, 279, 280, 281, 282, 283, 284, 285, 286, 287, 288, 289, 290, 291, 292, 293, 294, 295, 296, 297, 298, 299, 300, 301, 302, 303, 304, 305, 306, 307, 308, 309, 310, 311, 312, 313, 314, 315, 316, 317, 318, 319, 320, 321, 322, 323, 324, 325, 326, 327, 328, 329, 330, 331, 332, 333, 334, 335, 336, 337, 338, 339, 340, 341, 342, 343, 344, 345, 346, 347, 348, 349, 350, 351, 352, 353, 354, 355, 356, 357, 358, 359, 360, 361, 362, 363, 364, 365, 366, 367, 368, 369, 370, 371, 372, 373, 374, 375, 376, 377, 378, 379, 380, 381, 382, 383, 384, 385, 386, 387, 388, 389, 390, 391, 392, 393, 394, 395, 396, 397, 398, 399, 400, 401, 402, 403, 404, 405, 406, 407, 408, 409, 410, 411, 412, 413, 414, 415, 416, 417, 418, 419, 420, 421, 422, 423, 424, 425, 426, 427, 428, 429, 430, 431, 432, 433, 434, 435, 436, 437, 438, 439, 440, 441, 442, 443, 444, 445, 446, 447, 448, 449, 450, 451, 452, 453, 454, 455, 456, 457, 458, 459, 460, 461, 462, 463, 464, 465, 466, 467, 468, 469, 470, 471, 472, 473, 474, 475, 476, 477, 478, 479, 480, 481, 482, 483, 484, 485, 486, 487, 488, 489, 490, 491, 492, 493, 494, 495, 496],
      "AcquisitionTime": ["153608.942500", "153610.942500", "153612.942500", "153614.942500", "153616.942500", "153618.942500", "153620.942500", "153622.942500", "153624.942500", "153626.942500", "153628.942500", "153630.942500", "153632.942500", "153634.942500", "153636.942500", "153638.942500", "153640.942500", "153642.942500", "153644.942500", "153646.942500", "153648.942500", "153650.942500", "153652.942500", "153654.942500", "153656.942500", "153658.942500", "153700.942500", "153702.942500", "153704.942500", "153706.942500", "153708.942500", "153710.942500", "153712.942500", "153714.942500", "153716.942500", "153718.942500", "153720.942500", "153722.942500", "153724.942500", "153726.942500", "153728.942500", "153730.942500", "153732.942500", "153734.942500", "153736.942500", "153738.942500", "153740.942500", "153742.942500", "153744.942500", "153746.942500", "153748.942500", "153750.942500", "153752.942500", "153754.942500", "153756.942500", "153758.942500", "153800.942500", "153802.942500", "153804.942500", "153806.942500", "153808.942500", "153810.942500", "153812.942500", "153814.942500", "153816.942500", "153818.942500", "153820.942500", "153822.942500", "153824.942500", "153826.942500", "153828.942500", "153830.942500", "153832.942500", "153834.942500", "153836.942500", "153838.942500", "153840.942500", "153842.942500", "153844.942500", "153846.942500", "153848.942500", "153850.942500", "153852.942500", "153854.942500", "153856.942500", "153858.942500", "153900.942500", "153902.942500", "153904.942500", "153906.942500", "153908.942500", "153910.942500", "153912.942500", "153914.942500", "153916.942500", "153918.942500", "153920.942500", "153922.942500", "153924.942500", "153926.942500", "153928.942500", "153930.942500", "153932.942500", "153934.942500", "153936.942500", "153938.942500", "153940.942500", "153942.942500", "153944.942500", "153946.942500", "153948.942500", "153950.942500", "153952.942500", "153954.942500", "153956.942500", "153958.942500", "154000.942500", "154002.942500", "154004.942500", "154006.942500", "154008.942500", "154010.942500", "154012.942500", "154014.942500", "154016.942500", "154018.942500", "154020.942500", "154022.942500", "154024.942500", "154026.942500", "154028.942500", "154030.942500", "154032.942500", "154034.942500", "154036.942500", "154038.942500", "154040.942500", "154042.942500", "154044.942500", "154046.942500", "154048.942500", "154050.942500", "154052.942500", "154054.942500", "154056.942500", "154058.942500", "154100.942500", "154102.942500", "154104.942500", "154106.942500", "154108.942500", "154110.942500", "154112.942500", "154114.942500", "154116.942500", "154118.942500", "154120.942500", "154122.942500", "154124.942500", "154126.942500", "154128.942500", "154130.942500", "154132.942500", "154134.942500", "154136.942500", "154138.942500", "154140.942500", "154142.942500", "154144.942500", "154146.942500", "154148.942500", "154150.942500", "154152.942500", "154154.942500", "154156.942500", "154158.942500", "154200.942500", "154202.942500", "154204.942500", "154206.942500", "154208.942500", "154210.942500", "154212.942500", "154214.942500", "154216.942500", "154218.942500", "154220.942500", "154222.942500", "154224.942500", "154226.942500", "154228.942500", "154230.942500", "154232.942500", "154234.942500", "154236.942500", "154238.942500", "154240.942500", "154242.942500", "154244.942500", "154246.942500", "154248.942500", "154250.942500", "154252.942500", "154254.942500", "154256.942500", "154258.942500", "154300.942500", "154302.942500", "154304.942500", "154306.942500", "154308.942500", "154310.942500", "154312.942500", "154314.942500", "154316.942500", "154318.942500", "154320.942500", "154322.942500", "154324.942500", "154326.942500", "154328.942500", "154330.942500", "154332.942500", "154334.942500", "154336.942500", "154338.942500", "154340.942500", "154342.942500", "154344.942500", "154346.942500", "154348.942500", "154350.942500", "154352.942500", "154354.942500", "154356.942500", "154358.942500", "154400.942500", "154402.942500", "154404.942500", "154406.942500", "154408.942500", "154410.942500", "154412.942500", "154414.942500", "154416.942500", "154418.942500", "154420.942500", "154422.942500", "154424.942500", "154426.942500", "154428.942500", "154430.942500", "154432.942500", "154434.942500", "154436.942500", "154438.942500", "154440.942500", "154442.942500", "154444.942500", "154446.942500", "154448.942500", "154450.942500", "154452.942500", "154454.942500", "154456.942500", "154458.942500", "154500.942500", "154502.942500", "154504.942500", "154506.942500", "154508.942500", "154510.942500", "154512.942500", "154514.942500", "154516.942500", "154518.942500", "154520.942500", "154522.942500", "154524.942500", "154526.942500", "154528.942500", "154530.942500", "154532.942500", "154534.942500", "154536.942500", "154538.942500", "154540.942500", "154542.942500", "154544.942500", "154546.942500", "154548.942500", "154550.942500", "154552.942500", "154554.942500", "154556.942500", "154558.942500", "154600.942500", "154602.942500", "154604.942500", "154606.942500", "154608.942500", "154610.942500", "154612.942500", "154614.942500", "154616.942500", "154618.942500", "154620.942500", "154622.942500", "154624.942500", "154626.942500", "154628.942500", "154630.942500", "154632.942500", "154634.942500", "154636.942500", "154638.942500", "154640.942500", "154642.942500", "154644.942500", "154646.942500", "154648.942500", "154650.942500", "154652.942500", "154654.942500", "154656.942500", "154658.942500", "154700.942500", "154702.942500", "154704.942500", "154706.942500", "154708.942500", "154710.942500", "154712.942500", "154714.942500", "154716.942500", "154718.942500", "154720.942500", "154722.942500", "154724.942500", "154726.942500", "154728.942500", "154730.942500", "154732.942500", "154734.942500", "154736.942500", "154738.942500", "154740.942500", "154742.942500", "154744.942500", "154746.942500", "154748.942500", "154750.942500", "154752.942500", "154754.942500", "154756.942500", "154758.942500", "154800.942500", "154802.942500", "154804.942500", "154806.942500", "154808.942500", "154810.942500", "154812.942500", "154814.942500", "154816.942500", "154818.942500", "154820.942500", "154822.942500", "154824.942500", "154826.942500", "154828.942500", "154830.942500", "154832.942500", "154834.942500", "154836.942500", "154838.942500", "154840.942500", "154842.942500", "154844.942500", "154846.942500", "154848.942500", "154850.942500", "154852.942500", "154854.942500", "154856.942500", "154858.942500", "154900.942500", "154902.942500", "154904.942500", "154906.942500", "154908.942500", "154910.942500", "154912.942500", "154914.942500", "154916.942500", "154918.942500", "154920.942500", "154922.942500", "154924.942500", "154926.942500", "154928.942500", "154930.942500", "154932.942500", "154934.942500", "154936.942500", "154938.942500", "154940.942500", "154942.942500", "154944.942500", "154946.942500", "154948.942500", "154950.942500", "154952.942500", "154954.942500", "154956.942500", "154958.942500", "155000.942500", "155002.942500", "155004.942500", "155006.942500", "155008.942500", "155010.942500", "155012.942500", "155014.942500", "155016.942500", "155018.942500", "155020.942500", "155022.942500", "155024.942500", "155026.942500", "155028.942500", "155030.942500", "155032.942500", "155034.942500", "155036.942500", "155038.942500", "155040.942500", "155042.942500", "155044.942500", "155046.942500", "155048.942500", "155050.942500", "155052.942500", "155054.942500", "155056.942500", "155058.942500", "155100.942500", "155102.942500", "155104.942500", "155106.942500", "155108.942500", "155110.942500", "155112.942500", "155114.942500", "155116.942500", "155118.942500", "155120.942500", "155122.942500", "155124.942500", "155126.942500", "155128.942500", "155130.942500", "155132.942500", "155134.942500", "155136.942500", "155138.942500", "155140.942500", "155142.942500", "155144.942500", "155146.942500", "155148.942500", "155150.942500", "155152.942500", "155154.942500", "155156.942500", "155158.942500", "155200.942500", "155202.942500", "155204.942500", "155206.942500", "155208.942500", "155210.942500", "155212.942500", "155214.942500", "155216.942500", "155218.942500", "155220.942500", "155222.942500", "155224.942500", "155226.942500", "155228.942500", "155230.942500", "155232.942500", "155234.942500", "155236.942500", "155238.942500"],
      "ContentTime": ["153659.651000", "153659.654000", "153659.657000", "153659.659000", "153659.662000", "153659.664000", "153659.674000", "153659.676000", "153659.679000", "153659.682000", "153659.684000", "153659.687000", "153659.689000", "153659.692000", "153659.695000", "153659.697000", "153659.700000", "153659.702000", "153659.705000", "153659.707000", "153659.715000", "153659.717000", "153659.720000", "153659.722000", "153659.725000", "153739.606000", "153739.609000", "153739.612000", "153739.615000", "153739.617000", "153739.620000", "153739.622000", "153739.625000", "153739.627000", "153739.630000", "153739.632000", "153739.635000", "153739.644000", "153739.647000", "153739.649000", "153739.652000", "153739.655000", "153739.657000", "153739.660000", "153739.662000", "153819.607000", "153819.610000", "153819.612000", "153819.615000", "153819.617000", "153819.620000", "153819.622000", "153819.625000", "153819.627000", "153819.630000", "153819.633000", "153819.635000", "153819.638000", "153819.640000", "153819.643000", "153819.647000", "153819.650000", "153819.652000", "153819.655000", "153819.657000", "153859.607000", "153859.610000", "153859.613000", "153859.616000", "153859.619000", "153859.621000", "153859.624000", "153859.626000", "153859.629000", "153859.632000", "153859.634000", "153859.637000", "153859.639000", "153859.642000", "153859.645000", "153859.647000", "153859.650000", "153859.654000", "153859.657000", "153859.660000", "153939.606000", "153939.609000", "153939.612000", "153939.614000", "153939.617000", "153939.619000", "153939.622000", "153939.624000", "153939.627000", "153939.629000", "153939.632000", "153939.635000", "153939.637000", "153939.640000", "153939.642000", "153939.645000", "153939.648000", "153939.650000", "153939.657000", "153939.659000", "154019.607000", "154019.609000", "154019.612000", "154019.615000", "154019.617000", "154019.620000", "154019.622000", "154019.625000", "154019.627000", "154019.630000", "154019.632000", "154019.635000", "154019.637000", "154019.640000", "154019.642000", "154019.645000", "154019.648000", "154019.650000", "154019.653000", "154019.655000", "154059.607000", "154059.610000", "154059.613000", "154059.615000", "154059.618000", "154059.620000", "154059.623000", "154059.626000", "154059.628000", "154059.631000", "154059.633000", "154059.636000", "154059.638000", "154059.641000", "154059.644000", "154059.646000", "154059.649000", "154059.651000", "154059.654000", "154059.656000", "154139.606000", "154139.609000", "154139.612000", "154139.614000", "154139.617000", "154139.620000", "154139.622000", "154139.625000", "154139.627000", "154139.630000", "154139.632000", "154139.635000", "154139.637000", "154139.640000", "154139.643000", "154139.645000", "154139.648000", "154139.650000", "154139.653000", "154139.655000", "154219.607000", "154219.609000", "154219.612000", "154219.615000", "154219.617000", "154219.620000", "154219.622000", "154219.625000", "154219.627000", "154219.630000", "154219.632000", "154219.635000", "154219.637000", "154219.654000", "154219.656000", "154219.659000", "154219.661000", "154219.664000", "154219.667000", "154219.669000", "154259.607000", "154259.609000", "154259.612000", "154259.615000", "154259.617000", "154259.620000", "154259.622000", "154259.625000", "154259.627000", "154259.630000", "154259.632000", "154259.635000", "154259.637000", "154259.640000", "154259.642000", "154259.645000", "154259.648000", "154259.650000", "154259.653000", "154259.655000", "154339.607000", "154339.610000", "154339.613000", "154339.615000", "154339.618000", "154339.621000", "154339.623000", "154339.626000", "154339.628000", "154339.631000", "154339.633000", "154339.636000", "154339.639000", "154339.641000", "154339.644000", "154339.647000", "154339.649000", "154339.652000", "154339.654000", "154339.657000", "154419.606000", "154419.609000", "154419.612000", "154419.614000", "154419.617000", "154419.620000", "154419.622000", "154419.625000", "154419.627000", "154419.630000", "154419.632000", "154419.635000", "154419.637000", "154419.640000", "154419.642000", "154419.645000", "154419.648000", "154419.650000", "154419.653000", "154419.655000", "154459.607000", "154459.609000", "154459.612000", "154459.615000", "154459.617000", "154459.620000", "154459.623000", "154459.625000", "154459.628000", "154459.630000", "154459.633000", "154459.636000", "154459.638000", "154459.641000", "154459.643000", "154459.646000", "154459.649000", "154459.651000", "154459.654000", "154459.656000", "154539.608000", "154539.610000", "154539.613000", "154539.616000", "154539.618000", "154539.621000", "154539.623000", "154539.626000", "154539.628000", "154539.631000", "154539.633000", "154539.636000", "154539.638000", "154539.641000", "154539.643000", "154539.646000", "154539.649000", "154539.651000", "154539.654000", "154539.656000", "154619.606000", "154619.609000", "154619.612000", "154619.614000", "154619.617000", "154619.619000", "154619.622000", "154619.625000", "154619.627000", "154619.630000", "154619.632000", "154619.635000", "154619.638000", "154619.640000", "154619.643000", "154619.646000", "154619.648000", "154619.651000", "154619.653000", "154619.656000", "154659.607000", "154659.609000", "154659.612000", "154659.615000", "154659.617000", "154659.620000", "154659.622000", "154659.625000", "154659.627000", "154659.630000", "154659.632000", "154659.635000", "154659.637000", "154659.640000", "154659.642000", "154659.645000", "154659.647000", "154659.650000", "154659.653000", "154659.655000", "154739.606000", "154739.609000", "154739.612000", "154739.614000", "154739.617000", "154739.620000", "154739.622000", "154739.625000", "154739.627000", "154739.630000", "154739.632000", "154739.635000", "154739.637000", "154739.640000", "154739.642000", "154739.645000", "154739.647000", "154739.650000", "154739.653000", "154739.655000", "154819.608000", "154819.610000", "154819.613000", "154819.615000", "154819.618000", "154819.621000", "154819.623000", "154819.626000", "154819.628000", "154819.631000", "154819.633000", "154819.636000", "154819.639000", "154819.641000", "154819.644000", "154819.646000", "154819.649000", "154819.651000", "154819.654000", "154819.656000", "154859.607000", "154859.609000", "154859.612000", "154859.615000", "154859.617000", "154859.620000", "154859.622000", "154859.625000", "154859.627000", "154859.630000", "154859.632000", "154859.635000", "154859.637000", "154859.640000", "154859.642000", "154859.645000", "154859.647000", "154859.650000", "154859.652000", "154859.655000", "154939.607000", "154939.610000", "154939.612000", "154939.615000", "154939.617000", "154939.620000", "154939.623000", "154939.625000", "154939.628000", "154939.630000", "154939.633000", "154939.635000", "154939.638000", "154939.640000", "154939.643000", "154939.646000", "154939.648000", "154939.651000", "154939.653000", "154939.656000", "155019.608000", "155019.610000", "155019.613000", "155019.615000", "155019.618000", "155019.621000", "155019.623000", "155019.626000", "155019.628000", "155019.631000", "155019.633000", "155019.636000", "155019.639000", "155019.641000", "155019.644000", "155019.646000", "155019.649000", "155019.652000", "155019.654000", "155019.657000", "155059.607000", "155059.609000", "155059.612000", "155059.615000", "155059.617000", "155059.620000", "155059.622000", "155059.625000", "155059.627000", "155059.630000", "155059.632000", "155059.635000", "155059.638000", "155059.640000", "155059.643000", "155059.645000", "155059.648000", "155059.650000", "155059.653000", "155059.655000", "155139.606000", "155139.609000", "155139.612000", "155139.615000", "155139.617000", "155139.620000", "155139.622000", "155139.625000", "155139.627000", "155139.630000", "155139.632000", "155139.635000", "155139.637000", "155139.640000", "155139.643000", "155139.645000", "155139.648000", "155139.650000", "155139.653000", "155139.655000", "155219.607000", "155219.611000", "155219.613000", "155219.616000", "155219.619000", "155219.622000", "155219.624000", "155219.627000", "155219.629000", "155219.632000", "155219.635000", "155219.637000", "155219.640000", "155219.643000", "155219.645000", "155219.648000", "155219.650000", "155219.653000", "155219.656000", "155219.659000", "155242.619000", "155242.622000", "155242.625000", "155242.627000", "155242.630000", "155242.632000", "155242.635000", "155242.638000", "155242.640000", "155242.643000", "155242.646000"],
