{
  "AcquisitionMatrixPE": 96,
  "AcquisitionNumber": 1,
  "AcquisitionTime": "15:31:29.967500",
  "BandwidthPerPixelPhaseEncode": 20.425,
  "BaseResolution": 96,
  "BodyPartExamined": "BRAIN",
  "CoilCombinationMethod": "Sum of Squares",
  "ConsistencyInfo": "N4_VE11C_LATEST_20160120",
  "ConversionSoftware": "dcm2niix",
  "ConversionSoftwareVersion": "v1.0.20211006",
  "DerivedVendorReportedEchoSpacing": 0.000509996,
  "DeviceSerialNumber": "166054",
  "DwellTime": 2.3e-06,
  "EchoTime": 0.03,
  "EchoTrainLength": 96,
  "EffectiveEchoSpacing": 0.000509996,
  "FlipAngle": 75,
  "HeudiconvVersion": "0.11.3+d20220512",
  "ImageComments": "Unaliased MB2/PE2",
  "ImageOrientationPatientDICOM": [0.999901, -0.00263787, -0.0138178, 0.00052359, 0.988559, -0.150831],
  "ImageOrientationText": "Tra>Cor(-8.7)>Sag(-0.8)",
  "ImageType": [
    "ORIGINAL",
    "PRIMARY",
    "M",
    "MB",
    "ND",
    "MOSAIC"
],
  "ImagingFrequency": 123.26,
  "InPlanePhaseEncodingDirectionDICOM": "COL",
  "InstitutionAddress": "Street StreetNo,City,District,IL,ZIP",
  "InstitutionName": "Weizmann Institute",
  "InstitutionalDepartmentName": "Department",
  "MRAcquisitionType": "2D",
  "MagneticFieldStrength": 3,
  "Manufacturer": "Siemens",
  "ManufacturersModelName": "Prisma",
  "MatrixCoilMode": "SENSE",
  "Modality": "MR",
  "MultibandAccelerationFactor": 2,
  "PartialFourier": 1,
  "PatientPosition": "HFS",
  "PercentPhaseFOV": 100,
  "PercentSampling": 100,
  "PhaseEncodingDirection": "j-",
  "PhaseEncodingSteps": 96,
  "PhaseResolution": 1,
  "PixelBandwidth": 2265,
  "ProcedureStepDescription": "Weizmann^Sobel",
  "ProtocolName": "EPI_PSAP_iso2.5",
  "PulseSequenceDetails": "%CustomerSeq%\\cmrr_mbep2d_bold",
  "ReceiveCoilActiveElements": "HEA;HEP",
  "ReceiveCoilName": "Head_32",
  "ReconMatrixPE": 96,
  "RepetitionTime": 2,
  "SAR": 0.105279,
  "ScanOptions": "FS",
  "ScanningSequence": "EP",
  "SequenceName": "epfid2d1_96",
  "SequenceVariant": "SK\\SS",
  "SeriesDescription": "EPI_PSAP_iso2.5",
  "SeriesNumber": 6,
  "ShimSetting": [5907, -4112, -1812, 428, 89, -91, 197, 69],
  "SliceThickness": 2.5,
  "SliceTiming": [0, 0.92, 1.84, 0.7775, 1.6975, 0.6375, 1.5575, 0.495, 1.415, 0.355, 1.2725, 0.2125, 1.1325, 0.0725, 0.99, 1.91, 0.85, 1.7675, 0.7075, 1.6275, 0.5675, 1.485, 0.425, 1.345, 0.2825, 1.2025, 0.1425, 1.0625, 0, 0.92, 1.84, 0.7775, 1.6975, 0.6375, 1.5575, 0.495, 1.415, 0.355, 1.2725, 0.2125, 1.1325, 0.0725, 0.99, 1.91, 0.85, 1.7675, 0.7075, 1.6275, 0.5675, 1.485, 0.425, 1.345, 0.2825, 1.2025, 0.1425, 1.0625],
  "SoftwareVersions": "syngo MR E11",
  "SpacingBetweenSlices": 2.5,
  "StationName": "AWP166054",
  "TaskName": "PSAP",
  "TotalReadoutTime": 0.0484496,
  "TxRefAmp": 250.5,
  "VendorReportedEchoSpacing": 0.00051,
  "WipMemBlock": "3093f16f-455c-4dec-af55-4ef3bc374b95||Sequence: R016 ve11c/master r/e634e98; Dec 19 2017 11:00:25 by eja",
  "dcmmeta_affine": [
    [-2.4997525215148926, 0.0013089753920212388, -0.035144057124853134, 121.048828125],
    [0.006594684440642595, 2.4713985919952393, -0.3770219087600708, -102.41464233398438],
    [-0.03454458341002464, 0.3770773112773895, 2.4711575508117676, -64.39543151855469],
    [0.0, 0.0, 0.0, 1.0]
],
  "dcmmeta_reorient_transform": [
    [0.0, -1.0, 0.0, 95.0],
    [1.0, 0.0, 0.0, 0.0],
    [0.0, 0.0, 1.0, 0.0],
    [0.0, 0.0, 0.0, 1.0]
],
  "dcmmeta_shape": [96, 96, 56, 502],
  "dcmmeta_slice_dim": 2,
  "dcmmeta_version": 0.6,
  "global": {
    "const": {
      "AcquisitionMatrix": [96, 0, 0, 96],
      "AngioFlag": "N",
      "BitsAllocated": 16,
      "BitsStored": 16,
      "BodyPartExamined": "BRAIN",
      "Columns": 768,
      "EchoNumbers": 1,
      "EchoTime": 30.0,
      "EchoTrainLength": 96,
      "FlipAngle": 75.0,
      "HighBit": 15,
      "ImageOrientationPatient": [0.9999010496499, -0.0026378737911, -0.013817833799, 0.00052359017884, 0.98855943566435, -0.1508309252517],
      "ImagePositionPatient": [-961.52988178515, -960.5423356593, 109.73187225684],
      "ImageType": [
        "ORIGINAL",
        "PRIMARY",
        "M",
        "MB",
        "ND",
        "MOSAIC"
],
      "ImagedNucleus": "1H",
      "ImagingFrequency": 123.260127,
      "InPlanePhaseEncodingDirection": "COL",
      "MRAcquisitionType": "2D",
      "MagneticFieldStrength": 3.0,
      "Manufacturer": "SIEMENS",
      "ManufacturerModelName": "Prisma",
      "Modality": "MR",
      "NumberOfAverages": 1.0,
      "NumberOfPhaseEncodingSteps": 96,
      "PercentPhaseFieldOfView": 100.0,
      "PercentSampling": 100.0,
      "PerformedProcedureStepStartTime": "145804.870000",
      "PhotometricInterpretation": "MONOCHROME2",
      "PixelBandwidth": 2265.0,
      "PixelRepresentation": 0,
      "PixelSpacing": [2.5, 2.5],
      "ProtocolName": "EPI_PSAP_iso2.5",
      "RepetitionTime": 2000.0,
      "Rows": 768,
      "SAR": 0.10527929936751,
      "SamplesPerPixel": 1,
      "ScanOptions": "FS",
      "ScanningSequence": "EP",
      "SequenceName": "epfid2d1_96",
      "SequenceVariant": [
        "SK",
        "SS"
],
      "SeriesDescription": "EPI_PSAP_iso2.5",
      "SeriesNumber": 6,
      "SeriesTime": "153230.575000",
      "SliceLocation": -49.909132970533,
      "SliceThickness": 2.5,
      "SmallestImagePixelValue": 0,
      "SoftwareVersions": "syngo MR E11",
      "SpacingBetweenSlices": 2.4999999958591,
      "SpecificCharacterSet": "ISO_IR 100",
      "StudyID": "2",
      "StudyTime": "145804.809000",
      "TransmitCoilName": "Body",
      "VariableFlipAngleFlag": "N",
      "WindowCenterWidthExplanation": "Algo1",
      "dBdt": 0.0},
    "slices": {}
  },
  "time": {
    "samples": {
      "AcquisitionNumber": [1, 2, 3, 4, 5, 6, 7, 8, 9, 10, 11, 12, 13, 14, 15, 16, 17, 18, 19, 20, 21, 22, 23, 24, 25, 26, 27, 28, 29, 30, 31, 32, 33, 34, 35, 36, 37, 38, 39, 40, 41, 42, 43, 44, 45, 46, 47, 48, 49, 50, 51, 52, 53, 54, 55, 56, 57, 58, 59, 60, 61, 62, 63, 64, 65, 66, 67, 68, 69, 70, 71, 72, 73, 74, 75, 76, 77, 78, 79, 80, 81, 82, 83, 84, 85, 86, 87, 88, 89, 90, 91, 92, 93, 94, 95, 96, 97, 98, 99, 100, 101, 102, 103, 104, 105, 106, 107, 108, 109, 110, 111, 112, 113, 114, 115, 116, 117, 118, 119, 120, 121, 122, 123, 124, 125, 126, 127, 128, 129, 130, 131, 132, 133, 134, 135, 136, 137, 138, 139, 140, 141, 142, 143, 144, 145, 146, 147, 148, 149, 150, 151, 152, 153, 154, 155, 156, 157, 158, 159, 160, 161, 162, 163, 164, 165, 166, 167, 168, 169, 170, 171, 172, 173, 174, 175, 176, 177, 178, 179, 180, 181, 182, 183, 184, 185, 186, 187, 188, 189, 190, 191, 192, 193, 194, 195, 196, 197, 198, 199, 200, 201, 202, 203, 204, 205, 206, 207, 208, 209, 210, 211, 212, 213, 214, 215, 216, 217, 218, 219, 220, 221, 222, 223, 224, 225, 226, 227, 228, 229, 230, 231, 232, 233, 234, 235, 236, 237, 238, 239, 240, 241, 242, 243, 244, 245, 246, 247, 248, 249, 250, 251, 252, 253, 254, 255, 256, 257, 258, 259, 260, 261, 262, 263, 264, 265, 266, 267, 268, 269, 270, 271, 272, 273, 274, 275, 276, 277, 278, 279, 280, 281, 282, 283, 284, 285, 286, 287, 288, 289, 290, 291, 292, 293, 294, 295, 296, 297, 298, 299, 300, 301, 302, 303, 304, 305, 306, 307, 308, 309, 310, 311, 312, 313, 314, 315, 316, 317, 318, 319, 320, 321, 322, 323, 324, 325, 326, 327, 328, 329, 330, 331, 332, 333, 334, 335, 336, 337, 338, 339, 340, 341, 342, 343, 344, 345, 346, 347, 348, 349, 350, 351, 352, 353, 354, 355, 356, 357, 358, 359, 360, 361, 362, 363, 364, 365, 366, 367, 368, 369, 370, 371, 372, 373, 374, 375, 376, 377, 378, 379, 380, 381, 382, 383, 384, 385, 386, 387, 388, 389, 390, 391, 392, 393, 394, 395, 396, 397, 398, 399, 400, 401, 402, 403, 404, 405, 406, 407, 408, 409, 410, 411, 412, 413, 414, 415, 416, 417, 418, 419, 420, 421, 422, 423, 424, 425, 426, 427, 428, 429, 430, 431, 432, 433, 434, 435, 436, 437, 438, 439, 440, 441, 442, 443, 444, 445, 446, 447, 448, 449, 450, 451, 452, 453, 454, 455, 456, 457, 458, 459, 460, 461, 462, 463, 464, 465, 466, 467, 468, 469, 470, 471, 472, 473, 474, 475, 476, 477, 478, 479, 480, 481, 482, 483, 484, 485, 486, 487, 488, 489, 490, 491, 492, 493, 494, 495, 496, 497, 498, 499, 500, 501, 502],
      "AcquisitionTime": ["153129.967500", "153131.967500", "153133.967500", "153135.967500", "153137.967500", "153139.967500", "153141.967500", "153143.967500", "153145.967500", "153147.967500", "153149.967500", "153151.967500", "153153.967500", "153155.967500", "153157.967500", "153159.967500", "153201.967500", "153203.967500", "153205.967500", "153207.967500", "153209.967500", "153211.967500", "153213.967500", "153215.967500", "153217.967500", "153219.967500", "153221.967500", "153223.967500", "153225.967500", "153227.967500", "153229.967500", "153231.967500", "153233.967500", "153235.967500", "153237.967500", "153239.967500", "153241.967500", "153243.967500", "153245.967500", "153247.967500", "153249.967500", "153251.967500", "153253.967500", "153255.967500", "153257.967500", "153259.967500", "153301.967500", "153303.967500", "153305.967500", "153307.967500", "153309.967500", "153311.967500", "153313.967500", "153315.967500", "153317.967500", "153319.967500", "153321.967500", "153323.967500", "153325.967500", "153327.967500", "153329.967500", "153331.967500", "153333.967500", "153335.967500", "153337.967500", "153339.967500", "153341.967500", "153343.967500", "153345.967500", "153347.967500", "153349.967500", "153351.967500", "153353.967500", "153355.967500", "153357.967500", "153359.967500", "153401.967500", "153403.967500", "153405.967500", "153407.967500", "153409.967500", "153411.967500", "153413.967500", "153415.967500", "153417.967500", "153419.967500", "153421.967500", "153423.967500", "153425.967500", "153427.967500", "153429.967500", "153431.967500", "153433.967500", "153435.967500", "153437.967500", "153439.967500", "153441.967500", "153443.967500", "153445.967500", "153447.967500", "153449.967500", "153451.967500", "153453.967500", "153455.967500", "153457.967500", "153459.967500", "153501.967500", "153503.967500", "153505.967500", "153507.967500", "153509.967500", "153511.967500", "153513.967500", "153515.967500", "153517.967500", "153519.967500", "153521.967500", "153523.967500", "153525.967500", "153527.967500", "153529.967500", "153531.967500", "153533.967500", "153535.967500", "153537.967500", "153539.967500", "153541.967500", "153543.967500", "153545.967500", "153547.967500", "153549.967500", "153551.967500", "153553.967500", "153555.967500", "153557.967500", "153559.967500", "153601.967500", "153603.967500", "153605.967500", "153607.967500", "153609.967500", "153611.967500", "153613.967500", "153615.967500", "153617.967500", "153619.967500", "153621.967500", "153623.967500", "153625.967500", "153627.967500", "153629.967500", "153631.967500", "153633.967500", "153635.967500", "153637.967500", "153639.967500", "153641.967500", "153643.967500", "153645.967500", "153647.967500", "153649.967500", "153651.967500", "153653.967500", "153655.967500", "153657.967500", "153659.967500", "153701.967500", "153703.967500", "153705.967500", "153707.967500", "153709.967500", "153711.967500", "153713.967500", "153715.967500", "153717.967500", "153719.967500", "153721.967500", "153723.967500", "153725.967500", "153727.967500", "153729.967500", "153731.967500", "153733.967500", "153735.967500", "153737.967500", "153739.967500", "153741.967500", "153743.967500", "153745.967500", "153747.967500", "153749.967500", "153751.967500", "153753.967500", "153755.967500", "153757.967500", "153759.967500", "153801.967500", "153803.967500", "153805.967500", "153807.967500", "153809.967500", "153811.967500", "153813.967500", "153815.967500", "153817.967500", "153819.967500", "153821.967500", "153823.967500", "153825.967500", "153827.967500", "153829.967500", "153831.967500", "153833.967500", "153835.967500", "153837.967500", "153839.967500", "153841.967500", "153843.967500", "153845.967500", "153847.967500", "153849.967500", "153851.967500", "153853.967500", "153855.967500", "153857.967500", "153859.967500", "153901.967500", "153903.967500", "153905.967500", "153907.967500", "153909.967500", "153911.967500", "153913.967500", "153915.967500", "153917.967500", "153919.967500", "153921.967500", "153923.967500", "153925.967500", "153927.967500", "153929.967500", "153931.967500", "153933.967500", "153935.967500", "153937.967500", "153939.967500", "153941.967500", "153943.967500", "153945.967500", "153947.967500", "153949.967500", "153951.967500", "153953.967500", "153955.967500", "153957.967500", "153959.967500", "154001.967500", "154003.967500", "154005.967500", "154007.967500", "154009.967500", "154011.967500", "154013.967500", "154015.967500", "154017.967500", "154019.967500", "154021.967500", "154023.967500", "154025.967500", "154027.967500", "154029.967500", "154031.967500", "154033.967500", "154035.967500", "154037.967500", "154039.967500", "154041.967500", "154043.967500", "154045.967500", "154047.967500", "154049.967500", "154051.967500", "154053.967500", "154055.967500", "154057.967500", "154059.967500", "154101.967500", "154103.967500", "154105.967500", "154107.967500", "154109.967500", "154111.967500", "154113.967500", "154115.967500", "154117.967500", "154119.967500", "154121.967500", "154123.967500", "154125.967500", "154127.967500", "154129.967500", "154131.967500", "154133.967500", "154135.967500", "154137.967500", "154139.967500", "154141.967500", "154143.967500", "154145.967500", "154147.967500", "154149.967500", "154151.967500", "154153.967500", "154155.967500", "154157.967500", "154159.967500", "154201.967500", "154203.967500", "154205.967500", "154207.967500", "154209.967500", "154211.967500", "154213.967500", "154215.967500", "154217.967500", "154219.967500", "154221.967500", "154223.967500", "154225.967500", "154227.967500", "154229.967500", "154231.967500", "154233.967500", "154235.967500", "154237.967500", "154239.967500", "154241.967500", "154243.967500", "154245.967500", "154247.967500", "154249.967500", "154251.967500", "154253.967500", "154255.967500", "154257.967500", "154259.967500", "154301.967500", "154303.967500", "154305.967500", "154307.967500", "154309.967500", "154311.967500", "154313.967500", "154315.967500", "154317.967500", "154319.967500", "154321.967500", "154323.967500", "154325.967500", "154327.967500", "154329.967500", "154331.967500", "154333.967500", "154335.967500", "154337.967500", "154339.967500", "154341.967500", "154343.967500", "154345.967500", "154347.967500", "154349.967500", "154351.967500", "154353.967500", "154355.967500", "154357.967500", "154359.967500", "154401.967500", "154403.967500", "154405.967500", "154407.967500", "154409.967500", "154411.967500", "154413.967500", "154415.967500", "154417.967500", "154419.967500", "154421.967500", "154423.967500", "154425.967500", "154427.967500", "154429.967500", "154431.967500", "154433.967500", "154435.967500", "154437.967500", "154439.967500", "154441.967500", "154443.967500", "154445.967500", "154447.967500", "154449.967500", "154451.967500", "154453.967500", "154455.967500", "154457.967500", "154459.967500", "154501.967500", "154503.967500", "154505.967500", "154507.967500", "154509.967500", "154511.967500", "154513.967500", "154515.967500", "154517.967500", "154519.967500", "154521.967500", "154523.967500", "154525.967500", "154527.967500", "154529.967500", "154531.967500", "154533.967500", "154535.967500", "154537.967500", "154539.967500", "154541.967500", "154543.967500", "154545.967500", "154547.967500", "154549.967500", "154551.967500", "154553.967500", "154555.967500", "154557.967500", "154559.967500", "154601.967500", "154603.967500", "154605.967500", "154607.967500", "154609.967500", "154611.967500", "154613.967500", "154615.967500", "154617.967500", "154619.967500", "154621.967500", "154623.967500", "154625.967500", "154627.967500", "154629.967500", "154631.967500", "154633.967500", "154635.967500", "154637.967500", "154639.967500", "154641.967500", "154643.967500", "154645.967500", "154647.967500", "154649.967500", "154651.967500", "154653.967500", "154655.967500", "154657.967500", "154659.967500", "154701.967500", "154703.967500", "154705.967500", "154707.967500", "154709.967500", "154711.967500", "154713.967500", "154715.967500", "154717.967500", "154719.967500", "154721.967500", "154723.967500", "154725.967500", "154727.967500", "154729.967500", "154731.967500", "154733.967500", "154735.967500", "154737.967500", "154739.967500", "154741.967500", "154743.967500", "154745.967500", "154747.967500", "154749.967500", "154751.967500", "154753.967500", "154755.967500", "154757.967500", "154759.967500", "154801.967500", "154803.967500", "154805.967500", "154807.967500", "154809.967500", "154811.967500"],
      "ContentTime": ["153230.578000", "153230.580000", "153230.583000", "153230.586000", "153230.589000", "153230.596000", "153230.599000", "153230.601000", "153230.604000", "153230.606000", "153230.609000", "153230.612000", "153230.615000", "153230.617000", "153230.620000", "153230.622000", "153230.625000", "153230.628000", "153230.631000", "153230.633000", "153230.636000", "153230.638000", "153230.641000", "153230.643000", "153230.646000", "153230.648000", "153230.651000", "153230.654000", "153230.656000", "153310.551000", "153310.554000", "153310.557000", "153310.559000", "153310.562000", "153310.575000", "153310.577000", "153310.580000", "153310.582000", "153310.585000", "153310.588000", "153310.590000", "153310.594000", "153310.596000", "153310.599000", "153310.601000", "153310.604000", "153310.607000", "153310.609000", "153310.612000", "153350.551000", "153350.554000", "153350.557000", "153350.559000", "153350.562000", "153350.584000", "153350.587000", "153350.589000", "153350.592000", "153350.595000", "153350.597000", "153350.610000", "153350.613000", "153350.616000", "153350.618000", "153350.621000", "153350.623000", "153350.626000", "153350.629000", "153350.632000", "153430.553000", "153430.555000", "153430.558000", "153430.560000", "153430.563000", "153430.566000", "153430.568000", "153430.579000", "153430.582000", "153430.584000", "153430.587000", "153430.589000", "153430.592000", "153430.595000", "153430.597000", "153430.600000", "153430.602000", "153430.605000", "153430.608000", "153430.610000", "153510.551000", "153510.554000", "153510.557000", "153510.559000", "153510.562000", "153510.565000", "153510.567000", "153510.570000", "153510.573000", "153510.575000", "153510.578000", "153510.580000", "153510.583000", "153510.585000", "153510.588000", "153510.591000", "153510.594000", "153510.596000", "153510.599000", "153510.601000", "153550.552000", "153550.554000", "153550.557000", "153550.559000", "153550.562000", "153550.565000", "153550.567000", "153550.570000", "153550.573000", "153550.575000", "153550.578000", "153550.580000", "153550.583000", "153550.585000", "153550.588000", "153550.591000", "153550.594000", "153550.596000", "153550.599000", "153550.601000", "153630.552000", "153630.555000", "153630.558000", "153630.560000", "153630.563000", "153630.566000", "153630.568000", "153630.571000", "153630.573000", "153630.576000", "153630.579000", "153630.581000", "153630.584000", "153630.586000", "153630.589000", "153630.592000", "153630.594000", "153630.597000", "153630.600000", "153630.602000", "153710.552000", "153710.554000", "153710.557000", "153710.560000", "153710.562000", "153710.565000", "153710.567000", "153710.570000", "153710.573000", "153710.575000", "153710.578000", "153710.580000", "153710.583000", "153710.593000", "153710.596000", "153710.598000", "153710.601000", "153710.604000", "153710.606000", "153710.609000", "153750.551000", "153750.554000", "153750.557000", "153750.559000", "153750.562000", "153750.565000", "153750.567000", "153750.570000", "153750.572000", "153750.575000", "153750.578000", "153750.580000", "153750.583000", "153750.586000", "153750.588000", "153750.591000", "153750.594000", "153750.596000", "153750.599000", "153750.601000", "153830.552000", "153830.554000", "153830.557000", "153830.560000", "153830.562000", "153830.565000", "153830.568000", "153830.570000", "153830.573000", "153830.575000", "153830.578000", "153830.581000", "153830.583000", "153830.586000", "153830.589000", "153830.592000", "153830.595000", "153830.597000", "153830.600000", "153830.602000", "153910.552000", "153910.555000", "153910.558000", "153910.561000", "153910.563000", "153910.566000", "153910.568000", "153910.571000", "153910.574000", "153910.576000", "153910.579000", "153910.581000", "153910.584000", "153910.587000", "153910.589000", "153910.592000", "153910.594000", "153910.597000", "153910.600000", "153910.602000", "153950.551000", "153950.554000", "153950.557000", "153950.559000", "153950.562000", "153950.565000", "153950.568000", "153950.570000", "153950.573000", "153950.575000", "153950.578000", "153950.581000", "153950.583000", "153950.586000", "153950.588000", "153950.591000", "153950.594000", "153950.596000", "153950.599000", "153950.602000", "154030.552000", "154030.555000", "154030.557000", "154030.560000", "154030.562000", "154030.565000", "154030.567000", "154030.570000", "154030.573000", "154030.575000", "154030.578000", "154030.580000", "154030.601000", "154030.604000", "154030.607000", "154030.609000", "154030.612000", "154030.615000", "154030.617000", "154030.620000", "154050.552000", "154050.555000", "154050.557000", "154050.560000", "154050.562000", "154050.565000", "154050.568000", "154050.570000", "154050.573000", "154050.576000", "154130.553000", "154130.555000", "154130.558000", "154130.561000", "154130.563000", "154130.566000", "154130.568000", "154130.571000", "154130.573000", "154130.576000", "154130.579000", "154130.582000", "154130.584000", "154130.587000", "154130.590000", "154130.592000", "154130.595000", "154130.597000", "154130.600000", "154130.602000", "154210.552000", "154210.554000", "154210.557000", "154210.560000", "154210.562000", "154210.565000", "154210.568000", "154210.570000", "154210.573000", "154210.575000", "154210.578000", "154210.602000", "154210.604000", "154210.607000", "154210.610000", "154210.612000", "154210.615000", "154210.618000", "154210.621000", "154210.623000", "154250.552000", "154250.554000", "154250.557000", "154250.560000", "154250.562000", "154250.565000", "154250.567000", "154250.570000", "154250.573000", "154250.575000", "154250.578000", "154250.581000", "154250.583000", "154250.586000", "154250.589000", "154250.592000", "154250.594000", "154250.597000", "154250.599000", "154250.602000", "154330.552000", "154330.555000", "154330.558000", "154330.561000", "154330.563000", "154330.566000", "154330.568000", "154330.571000", "154330.574000", "154330.576000", "154330.579000", "154330.581000", "154330.584000", "154330.587000", "154330.589000", "154330.592000", "154330.595000", "154330.597000", "154330.600000", "154330.602000", "154410.551000", "154410.554000", "154410.557000", "154410.560000", "154410.562000", "154410.565000", "154410.567000", "154410.570000", "154410.573000", "154410.575000", "154410.578000", "154410.580000", "154410.583000", "154410.586000", "154410.589000", "154410.591000", "154410.594000", "154410.597000", "154410.599000", "154410.602000", "154450.552000", "154450.554000", "154450.557000", "154450.560000", "154450.562000", "154450.565000", "154450.568000", "154450.570000", "154450.573000", "154450.575000", "154450.578000", "154450.581000", "154450.583000", "154450.586000", "154450.589000", "154450.591000", "154450.594000", "154450.596000", "154450.599000", "154450.602000", "154530.552000", "154530.554000", "154530.557000", "154530.560000", "154530.563000", "154530.565000", "154530.568000", "154530.570000", "154530.573000", "154530.575000", "154530.578000", "154530.581000", "154530.583000", "154530.586000", "154530.590000", "154530.592000", "154530.595000", "154530.597000", "154530.600000", "154530.603000", "154610.553000", "154610.555000", "154610.559000", "154610.561000", "154610.564000", "154610.566000", "154610.569000", "154610.572000", "154610.575000", "154610.577000", "154610.580000", "154610.582000", "154610.585000", "154610.588000", "154610.590000", "154610.593000", "154610.595000", "154610.598000", "154610.601000", "154610.603000", "154650.551000", "154650.554000", "154650.557000", "154650.560000", "154650.562000", "154650.565000", "154650.568000", "154650.570000", "154650.573000", "154650.575000", "154650.578000", "154650.580000", "154650.583000", "154650.586000", "154650.588000", "154650.591000", "154650.594000", "154650.596000", "154650.599000", "154650.601000", "154730.552000", "154730.554000", "154730.557000", "154730.560000", "154730.562000", "154730.565000", "154730.568000", "154730.570000", "154730.573000", "154730.575000", "154730.578000", "154730.581000", "154730.583000", "154730.586000", "154730.589000", "154730.591000", "154730.594000", "154730.597000", "154730.599000", "154730.602000", "154810.552000", "154810.555000", "154810.558000", "154810.561000", "154810.563000", "154810.566000", "154810.569000", "154810.571000", "154810.574000", "154810.576000", "154810.579000", "154810.582000", "154810.584000", "154810.587000", "154810.589000", "154810.592000", "154810.595000", "154810.597000", "154810.600000", "154810.602000", "154815.880000", "154815.883000", "154815.886000"],
