{
  "AcquisitionMatrixPE": 96,
  "AcquisitionNumber": 1,
  "AcquisitionTime": "14:16:28.392500",
  "BandwidthPerPixelPhaseEncode": 20.425,
  "BaseResolution": 96,
  "BodyPartExamined": "BRAIN",
  "CoilCombinationMethod": "Sum of Squares",
  "ConsistencyInfo": "N4_VE11C_LATEST_20160120",
  "ConversionSoftware": "dcm2niix",
  "ConversionSoftwareVersion": "v1.0.20211006",
  "DerivedVendorReportedEchoSpacing": 0.000509996,
  "DeviceSerialNumber": "166054",
  "DwellTime": 2.3e-06,
  "EchoTime": 0.03,
  "EchoTrainLength": 96,
  "EffectiveEchoSpacing": 0.000509996,
  "FlipAngle": 75,
  "HeudiconvVersion": "0.11.3+d20220512",
  "ImageComments": "Unaliased MB2/PE2",
  "ImageOrientationPatientDICOM": [0.999665, 0.0157908, 0.0204886, -0.00523431, 0.899155, -0.4376],
  "ImageOrientationText": "Tra>Cor(-25.9)>Sag(1.5)",
  "ImageType": [
    "ORIGINAL",
    "PRIMARY",
    "M",
    "MB",
    "ND",
    "MOSAIC"
],
  "ImagingFrequency": 123.26,
  "InPlanePhaseEncodingDirectionDICOM": "COL",
  "InstitutionAddress": "Street StreetNo,City,District,IL,ZIP",
  "InstitutionName": "Weizmann Institute",
  "InstitutionalDepartmentName": "Department",
  "MRAcquisitionType": "2D",
  "MagneticFieldStrength": 3,
  "Manufacturer": "Siemens",
  "ManufacturersModelName": "Prisma",
  "MatrixCoilMode": "SENSE",
  "Modality": "MR",
  "MultibandAccelerationFactor": 2,
  "PartialFourier": 1,
  "PatientPosition": "HFS",
  "PercentPhaseFOV": 100,
  "PercentSampling": 100,
  "PhaseEncodingDirection": "j-",
  "PhaseEncodingSteps": 96,
  "PhaseResolution": 1,
  "PixelBandwidth": 2265,
  "ProcedureStepDescription": "Weizmann^Sobel",
  "ProtocolName": "EPI_PSAP_iso2.5",
  "PulseSequenceDetails": "%CustomerSeq%\\cmrr_mbep2d_bold",
  "ReceiveCoilActiveElements": "HEA;HEP",
  "ReceiveCoilName": "Head_32",
  "ReconMatrixPE": 96,
  "RepetitionTime": 2,
  "SAR": 0.090797,
  "ScanOptions": "FS",
  "ScanningSequence": "EP",
  "SequenceName": "epfid2d1_96",
  "SequenceVariant": "SK\\SS",
  "SeriesDescription": "EPI_PSAP_iso2.5",
  "SeriesNumber": 6,
  "ShimSetting": [5928, -3988, -1934, 526, -15, 76, -129, 55],
  "SliceThickness": 2.5,
  "SliceTiming": [0, 0.9175, 1.8375, 0.7775, 1.6975, 0.635, 1.555, 0.495, 1.4125, 0.3525, 1.2725, 0.2125, 1.13, 0.07, 0.99, 1.9075, 0.8475, 1.7675, 0.7075, 1.625, 0.565, 1.485, 0.4225, 1.3425, 0.2825, 1.2025, 0.14, 1.06, 0, 0.9175, 1.8375, 0.7775, 1.6975, 0.635, 1.555, 0.495, 1.4125, 0.3525, 1.2725, 0.2125, 1.13, 0.07, 0.99, 1.9075, 0.8475, 1.7675, 0.7075, 1.625, 0.565, 1.485, 0.4225, 1.3425, 0.2825, 1.2025, 0.14, 1.06],
  "SoftwareVersions": "syngo MR E11",
  "SpacingBetweenSlices": 2.5,
  "StationName": "AWP166054",
  "TaskName": "PSAP",
  "TotalReadoutTime": 0.0484496,
  "TxRefAmp": 253.8,
  "VendorReportedEchoSpacing": 0.00051,
  "WipMemBlock": "90b4d840-55f8-419d-ac40-41cbd67c614b||Sequence: R016 ve11c/master r/e634e98; Dec 19 2017 11:00:25 by eja",
  "dcmmeta_affine": [
    [-2.4991633892059326, -0.01308576762676239, 0.06333121657371521, 122.8959732055664],
    [-0.03947698697447777, 2.247886896133423, -1.0933647155761719, -72.03178405761719],
    [0.05122155323624611, 1.093998908996582, 2.2473413944244385, -141.00137329101562],
    [0.0, 0.0, 0.0, 1.0]
],
  "dcmmeta_reorient_transform": [
    [0.0, -1.0, 0.0, 95.0],
    [1.0, 0.0, 0.0, 0.0],
    [0.0, 0.0, 1.0, 0.0],
    [0.0, 0.0, 0.0, 1.0]
],
  "dcmmeta_shape": [96, 96, 56, 488],
  "dcmmeta_slice_dim": 2,
  "dcmmeta_version": 0.6,
  "global": {
    "const": {
      "AcquisitionMatrix": [96, 0, 0, 96],
      "AngioFlag": "N",
      "BitsAllocated": 16,
      "BitsStored": 16,
      "BodyPartExamined": "BRAIN",
      "Columns": 768,
      "EchoNumbers": 1,
      "EchoTime": 30.0,
      "EchoTrainLength": 96,
      "FlipAngle": 75.0,
      "HighBit": 15,
      "ImageOrientationPatient": [0.99966537762715, 0.01579079428103, 0.020488620977, -0.0052343070181, 0.89915472354321, -0.4375995717091],
      "ImagePositionPatient": [-956.97492301291, -910.07169994941, 313.30172632585],
      "ImageType": [
        "ORIGINAL",
        "PRIMARY",
        "M",
        "MB",
        "ND",
        "MOSAIC"
],
      "ImagedNucleus": "1H",
      "ImagingFrequency": 123.259748,
      "InPlanePhaseEncodingDirection": "COL",
      "MRAcquisitionType": "2D",
      "MagneticFieldStrength": 3.0,
      "Manufacturer": "SIEMENS",
      "ManufacturerModelName": "Prisma",
      "Modality": "MR",
      "NumberOfAverages": 1.0,
      "NumberOfPhaseEncodingSteps": 96,
      "PercentPhaseFieldOfView": 100.0,
      "PercentSampling": 100.0,
      "PerformedProcedureStepStartTime": "133859.733000",
      "PhotometricInterpretation": "MONOCHROME2",
      "PixelBandwidth": 2265.0,
      "PixelRepresentation": 0,
      "PixelSpacing": [2.5, 2.5],
      "ProtocolName": "EPI_PSAP_iso2.5",
      "RepetitionTime": 2000.0,
      "Rows": 768,
      "SAR": 0.09079696930017,
      "SamplesPerPixel": 1,
      "ScanOptions": "FS",
      "ScanningSequence": "EP",
      "SequenceName": "epfid2d1_96",
      "SequenceVariant": [
        "SK",
        "SS"
],
      "SeriesDescription": "EPI_PSAP_iso2.5",
      "SeriesNumber": 6,
      "SeriesTime": "141726.908000",
      "SliceLocation": -92.13521391853,
      "SliceThickness": 2.5,
      "SmallestImagePixelValue": 0,
      "SoftwareVersions": "syngo MR E11",
      "SpacingBetweenSlices": 2.5000000281054,
      "SpecificCharacterSet": "ISO_IR 100",
      "StudyID": "1",
      "StudyTime": "133859.664000",
      "TransmitCoilName": "Body",
      "VariableFlipAngleFlag": "N",
      "WindowCenterWidthExplanation": "Algo1",
      "dBdt": 0.0},
    "slices": {}
  },
  "time": {
    "samples": {
      "AcquisitionNumber": [1, 2, 3, 4, 5, 6, 7, 8, 9, 10, 11, 12, 13, 14, 15, 16, 17, 18, 19, 20, 21, 22, 23, 24, 25, 26, 27, 28, 29, 30, 31, 32, 33, 34, 35, 36, 37, 38, 39, 40, 41, 42, 43, 44, 45, 46, 47, 48, 49, 50, 51, 52, 53, 54, 55, 56, 57, 58, 59, 60, 61, 62, 63, 64, 65, 66, 67, 68, 69, 70, 71, 72, 73, 74, 75, 76, 77, 78, 79, 80, 81, 82, 83, 84, 85, 86, 87, 88, 89, 90, 91, 92, 93, 94, 95, 96, 97, 98, 99, 100, 101, 102, 103, 104, 105, 106, 107, 108, 109, 110, 111, 112, 113, 114, 115, 116, 117, 118, 119, 120, 121, 122, 123, 124, 125, 126, 127, 128, 129, 130, 131, 132, 133, 134, 135, 136, 137, 138, 139, 140, 141, 142, 143, 144, 145, 146, 147, 148, 149, 150, 151, 152, 153, 154, 155, 156, 157, 158, 159, 160, 161, 162, 163, 164, 165, 166, 167, 168, 169, 170, 171, 172, 173, 174, 175, 176, 177, 178, 179, 180, 181, 182, 183, 184, 185, 186, 187, 188, 189, 190, 191, 192, 193, 194, 195, 196, 197, 198, 199, 200, 201, 202, 203, 204, 205, 206, 207, 208, 209, 210, 211, 212, 213, 214, 215, 216, 217, 218, 219, 220, 221, 222, 223, 224, 225, 226, 227, 228, 229, 230, 231, 232, 233, 234, 235, 236, 237, 238, 239, 240, 241, 242, 243, 244, 245, 246, 247, 248, 249, 250, 251, 252, 253, 254, 255, 256, 257, 258, 259, 260, 261, 262, 263, 264, 265, 266, 267, 268, 269, 270, 271, 272, 273, 274, 275, 276, 277, 278, 279, 280, 281, 282, 283, 284, 285, 286, 287, 288, 289, 290, 291, 292, 293, 294, 295, 296, 297, 298, 299, 300, 301, 302, 303, 304, 305, 306, 307, 308, 309, 310, 311, 312, 313, 314, 315, 316, 317, 318, 319, 320, 321, 322, 323, 324, 325, 326, 327, 328, 329, 330, 331, 332, 333, 334, 335, 336, 337, 338, 339, 340, 341, 342, 343, 344, 345, 346, 347, 348, 349, 350, 351, 352, 353, 354, 355, 356, 357, 358, 359, 360, 361, 362, 363, 364, 365, 366, 367, 368, 369, 370, 371, 372, 373, 374, 375, 376, 377, 378, 379, 380, 381, 382, 383, 384, 385, 386, 387, 388, 389, 390, 391, 392, 393, 394, 395, 396, 397, 398, 399, 400, 401, 402, 403, 404, 405, 406, 407, 408, 409, 410, 411, 412, 413, 414, 415, 416, 417, 418, 419, 420, 421, 422, 423, 424, 425, 426, 427, 428, 429, 430, 431, 432, 433, 434, 435, 436, 437, 438, 439, 440, 441, 442, 443, 444, 445, 446, 447, 448, 449, 450, 451, 452, 453, 454, 455, 456, 457, 458, 459, 460, 461, 462, 463, 464, 465, 466, 467, 468, 469, 470, 471, 472, 473, 474, 475, 476, 477, 478, 479, 480, 481, 482, 483, 484, 485, 486, 487, 488],
      "AcquisitionTime": ["141628.392500", "141630.392500", "141632.392500", "141634.392500", "141636.392500", "141638.392500", "141640.392500", "141642.392500", "141644.392500", "141646.392500", "141648.392500", "141650.392500", "141652.392500", "141654.392500", "141656.392500", "141658.392500", "141700.392500", "141702.392500", "141704.392500", "141706.392500", "141708.392500", "141710.392500", "141712.392500", "141714.392500", "141716.392500", "141718.392500", "141720.392500", "141722.392500", "141724.392500", "141726.392500", "141728.392500", "141730.392500", "141732.392500", "141734.392500", "141736.392500", "141738.392500", "141740.392500", "141742.392500", "141744.392500", "141746.392500", "141748.392500", "141750.392500", "141752.392500", "141754.392500", "141756.392500", "141758.392500", "141800.392500", "141802.392500", "141804.392500", "141806.392500", "141808.392500", "141810.392500", "141812.392500", "141814.392500", "141816.392500", "141818.392500", "141820.392500", "141822.392500", "141824.392500", "141826.392500", "141828.392500", "141830.392500", "141832.392500", "141834.392500", "141836.392500", "141838.392500", "141840.392500", "141842.392500", "141844.392500", "141846.392500", "141848.392500", "141850.392500", "141852.392500", "141854.392500", "141856.392500", "141858.392500", "141900.392500", "141902.392500", "141904.392500", "141906.392500", "141908.392500", "141910.392500", "141912.392500", "141914.392500", "141916.392500", "141918.392500", "141920.392500", "141922.392500", "141924.392500", "141926.392500", "141928.392500", "141930.392500", "141932.392500", "141934.392500", "141936.392500", "141938.392500", "141940.392500", "141942.392500", "141944.392500", "141946.392500", "141948.392500", "141950.392500", "141952.392500", "141954.392500", "141956.392500", "141958.392500", "142000.392500", "142002.392500", "142004.392500", "142006.392500", "142008.392500", "142010.392500", "142012.392500", "142014.392500", "142016.392500", "142018.392500", "142020.392500", "142022.392500", "142024.392500", "142026.392500", "142028.392500", "142030.392500", "142032.392500", "142034.392500", "142036.392500", "142038.392500", "142040.392500", "142042.392500", "142044.392500", "142046.392500", "142048.392500", "142050.392500", "142052.392500", "142054.392500", "142056.392500", "142058.392500", "142100.392500", "142102.392500", "142104.392500", "142106.392500", "142108.392500", "142110.392500", "142112.392500", "142114.392500", "142116.392500", "142118.392500", "142120.392500", "142122.392500", "142124.392500", "142126.392500", "142128.392500", "142130.392500", "142132.392500", "142134.392500", "142136.392500", "142138.392500", "142140.392500", "142142.392500", "142144.392500", "142146.392500", "142148.392500", "142150.392500", "142152.392500", "142154.392500", "142156.392500", "142158.392500", "142200.392500", "142202.392500", "142204.392500", "142206.392500", "142208.392500", "142210.392500", "142212.392500", "142214.392500", "142216.392500", "142218.392500", "142220.392500", "142222.392500", "142224.392500", "142226.392500", "142228.392500", "142230.392500", "142232.392500", "142234.392500", "142236.392500", "142238.392500", "142240.392500", "142242.392500", "142244.392500", "142246.392500", "142248.392500", "142250.392500", "142252.392500", "142254.392500", "142256.392500", "142258.392500", "142300.392500", "142302.392500", "142304.392500", "142306.392500", "142308.392500", "142310.392500", "142312.392500", "142314.392500", "142316.392500", "142318.392500", "142320.392500", "142322.392500", "142324.392500", "142326.392500", "142328.392500", "142330.392500", "142332.392500", "142334.392500", "142336.392500", "142338.392500", "142340.392500", "142342.392500", "142344.392500", "142346.392500", "142348.392500", "142350.392500", "142352.392500", "142354.392500", "142356.392500", "142358.392500", "142400.392500", "142402.392500", "142404.392500", "142406.392500", "142408.392500", "142410.392500", "142412.392500", "142414.392500", "142416.392500", "142418.392500", "142420.392500", "142422.392500", "142424.392500", "142426.392500", "142428.392500", "142430.392500", "142432.392500", "142434.392500", "142436.392500", "142438.392500", "142440.392500", "142442.392500", "142444.392500", "142446.392500", "142448.392500", "142450.392500", "142452.392500", "142454.392500", "142456.392500", "142458.392500", "142500.392500", "142502.392500", "142504.392500", "142506.392500", "142508.392500", "142510.392500", "142512.392500", "142514.392500", "142516.392500", "142518.392500", "142520.392500", "142522.392500", "142524.392500", "142526.392500", "142528.392500", "142530.392500", "142532.392500", "142534.392500", "142536.392500", "142538.392500", "142540.392500", "142542.392500", "142544.392500", "142546.392500", "142548.392500", "142550.392500", "142552.392500", "142554.392500", "142556.392500", "142558.392500", "142600.392500", "142602.392500", "142604.392500", "142606.392500", "142608.392500", "142610.392500", "142612.392500", "142614.392500", "142616.392500", "142618.392500", "142620.392500", "142622.392500", "142624.392500", "142626.392500", "142628.392500", "142630.392500", "142632.392500", "142634.392500", "142636.392500", "142638.392500", "142640.392500", "142642.392500", "142644.392500", "142646.392500", "142648.392500", "142650.392500", "142652.392500", "142654.392500", "142656.392500", "142658.392500", "142700.392500", "142702.392500", "142704.392500", "142706.392500", "142708.392500", "142710.392500", "142712.392500", "142714.392500", "142716.392500", "142718.392500", "142720.392500", "142722.392500", "142724.392500", "142726.392500", "142728.392500", "142730.392500", "142732.392500", "142734.392500", "142736.392500", "142738.392500", "142740.392500", "142742.392500", "142744.392500", "142746.392500", "142748.392500", "142750.392500", "142752.392500", "142754.392500", "142756.392500", "142758.392500", "142800.392500", "142802.392500", "142804.392500", "142806.392500", "142808.392500", "142810.392500", "142812.392500", "142814.392500", "142816.392500", "142818.392500", "142820.392500", "142822.392500", "142824.392500", "142826.392500", "142828.392500", "142830.392500", "142832.392500", "142834.392500", "142836.392500", "142838.392500", "142840.392500", "142842.392500", "142844.392500", "142846.392500", "142848.392500", "142850.392500", "142852.392500", "142854.392500", "142856.392500", "142858.392500", "142900.392500", "142902.392500", "142904.392500", "142906.392500", "142908.392500", "142910.392500", "142912.392500", "142914.392500", "142916.392500", "142918.392500", "142920.392500", "142922.392500", "142924.392500", "142926.392500", "142928.392500", "142930.392500", "142932.392500", "142934.392500", "142936.392500", "142938.392500", "142940.392500", "142942.392500", "142944.392500", "142946.392500", "142948.392500", "142950.392500", "142952.392500", "142954.392500", "142956.392500", "142958.392500", "143000.392500", "143002.392500", "143004.392500", "143006.392500", "143008.392500", "143010.392500", "143012.392500", "143014.392500", "143016.392500", "143018.392500", "143020.392500", "143022.392500", "143024.392500", "143026.392500", "143028.392500", "143030.392500", "143032.392500", "143034.392500", "143036.392500", "143038.392500", "143040.392500", "143042.392500", "143044.392500", "143046.392500", "143048.392500", "143050.392500", "143052.392500", "143054.392500", "143056.392500", "143058.392500", "143100.392500", "143102.392500", "143104.392500", "143106.392500", "143108.392500", "143110.392500", "143112.392500", "143114.392500", "143116.392500", "143118.392500", "143120.392500", "143122.392500", "143124.392500", "143126.392500", "143128.392500", "143130.392500", "143132.392500", "143134.392500", "143136.392500", "143138.392500", "143140.392500", "143142.392500", "143144.392500", "143146.392500", "143148.392500", "143150.392500", "143152.392500", "143154.392500", "143156.392500", "143158.392500", "143200.392500", "143202.392500", "143204.392500", "143206.392500", "143208.392500", "143210.392500", "143212.392500", "143214.392500", "143216.392500", "143218.392500", "143220.392500", "143222.392500", "143224.392500", "143226.392500", "143228.392500", "143230.392500", "143232.392500", "143234.392500", "143236.392500", "143238.392500", "143240.392500", "143242.392500"],
      "ContentTime": ["141726.911000", "141726.914000", "141726.916000", "141726.919000", "141726.922000", "141726.932000", "141726.934000", "141726.937000", "141726.939000", "141726.942000", "141726.945000", "141726.947000", "141726.950000", "141726.953000", "141726.955000", "141726.958000", "141726.961000", "141726.963000", "141726.966000", "141726.969000", "141726.971000", "141726.974000", "141726.976000", "141726.979000", "141726.981000", "141726.991000", "141726.993000", "141726.996000", "141727.000000", "141806.870000", "141806.873000", "141806.876000", "141806.878000", "141806.881000", "141806.883000", "141806.886000", "141806.889000", "141806.891000", "141806.894000", "141806.896000", "141806.899000", "141806.902000", "141806.904000", "141806.907000", "141806.909000", "141806.912000", "141806.915000", "141806.917000", "141806.920000", "141846.871000", "141846.873000", "141846.876000", "141846.879000", "141846.881000", "141846.884000", "141846.886000", "141846.889000", "141846.892000", "141846.894000", "141846.897000", "141846.899000", "141846.902000", "141846.910000", "141846.913000", "141846.915000", "141846.918000", "141846.921000", "141846.923000", "141846.926000", "141926.870000", "141926.873000", "141926.876000", "141926.879000", "141926.881000", "141926.884000", "141926.886000", "141926.889000", "141926.892000", "141926.894000", "141926.897000", "141926.899000", "141926.902000", "141926.905000", "141926.910000", "141926.913000", "141926.916000", "141926.918000", "141926.921000", "141926.923000", "142006.872000", "142006.874000", "142006.877000", "142006.879000", "142006.882000", "142006.884000", "142006.887000", "142006.890000", "142006.892000", "142006.895000", "142006.897000", "142006.900000", "142006.903000", "142006.905000", "142006.908000", "142006.910000", "142006.913000", "142006.915000", "142006.918000", "142006.921000", "142046.871000", "142046.873000", "142046.876000", "142046.879000", "142046.881000", "142046.884000", "142046.886000", "142046.889000", "142046.892000", "142046.894000", "142046.897000", "142046.899000", "142046.902000", "142046.905000", "142046.907000", "142046.910000", "142046.912000", "142046.915000", "142046.917000", "142046.920000", "142126.871000", "142126.873000", "142126.876000", "142126.879000", "142126.881000", "142126.884000", "142126.886000", "142126.889000", "142126.892000", "142126.894000", "142126.897000", "142126.900000", "142126.902000", "142126.905000", "142126.907000", "142126.910000", "142126.913000", "142126.915000", "142126.918000", "142126.921000", "142206.871000", "142206.874000", "142206.877000", "142206.880000", "142206.882000", "142206.885000", "142206.887000", "142206.890000", "142206.892000", "142206.895000", "142206.898000", "142206.900000", "142206.903000", "142206.905000", "142206.908000", "142206.911000", "142206.913000", "142206.916000", "142206.919000", "142206.921000", "142246.871000", "142246.873000", "142246.876000", "142246.879000", "142246.882000", "142246.884000", "142246.887000", "142246.889000", "142246.892000", "142246.895000", "142246.897000", "142246.900000", "142246.903000", "142246.905000", "142246.908000", "142246.910000", "142246.913000", "142246.916000", "142246.918000", "142246.921000", "142326.870000", "142326.873000", "142326.876000", "142326.891000", "142326.893000", "142326.896000", "142326.898000", "142326.901000", "142326.904000", "142326.906000", "142326.909000", "142326.911000", "142326.914000", "142326.917000", "142326.919000", "142326.922000", "142326.925000", "142326.927000", "142326.930000", "142326.933000", "142406.870000", "142406.873000", "142406.876000", "142406.879000", "142406.881000", "142406.884000", "142406.886000", "142406.889000", "142406.892000", "142406.894000", "142406.897000", "142406.899000", "142406.902000", "142406.904000", "142406.907000", "142406.910000", "142406.912000", "142406.915000", "142406.917000", "142406.920000", "142446.871000", "142446.874000", "142446.877000", "142446.879000", "142446.882000", "142446.885000", "142446.887000", "142446.890000", "142446.893000", "142446.895000", "142446.898000", "142446.900000", "142446.903000", "142446.905000", "142446.908000", "142446.911000", "142446.913000", "142446.916000", "142446.918000", "142446.921000", "142526.871000", "142526.873000", "142526.876000", "142526.879000", "142526.881000", "142526.884000", "142526.887000", "142526.889000", "142526.892000", "142526.894000", "142526.897000", "142526.900000", "142526.902000", "142526.905000", "142526.908000", "142526.910000", "142526.913000", "142526.915000", "142526.918000", "142526.921000", "142606.871000", "142606.874000", "142606.876000", "142606.879000", "142606.881000", "142606.884000", "142606.886000", "142606.889000", "142606.892000", "142606.894000", "142606.897000", "142606.900000", "142606.902000", "142606.905000", "142606.907000", "142606.910000", "142606.913000", "142606.915000", "142606.918000", "142606.920000", "142646.871000", "142646.874000", "142646.877000", "142646.879000", "142646.882000", "142646.885000", "142646.887000", "142646.890000", "142646.893000", "142646.895000", "142646.898000", "142646.900000", "142646.903000", "142646.906000", "142646.908000", "142646.911000", "142646.913000", "142646.916000", "142646.918000", "142646.921000", "142726.871000", "142726.873000", "142726.876000", "142726.879000", "142726.881000", "142726.884000", "142726.886000", "142726.889000", "142726.892000", "142726.894000", "142726.897000", "142726.899000", "142726.902000", "142726.905000", "142726.907000", "142726.910000", "142726.912000", "142726.915000", "142726.918000", "142726.920000", "142806.871000", "142806.873000", "142806.876000", "142806.879000", "142806.881000", "142806.884000", "142806.886000", "142806.889000", "142806.891000", "142806.894000", "142806.897000", "142806.899000", "142806.902000", "142806.904000", "142806.907000", "142806.910000", "142806.912000", "142806.915000", "142806.917000", "142806.920000", "142846.870000", "142846.873000", "142846.876000", "142846.878000", "142846.881000", "142846.884000", "142846.886000", "142846.889000", "142846.891000", "142846.894000", "142846.897000", "142846.899000", "142846.902000", "142846.904000", "142846.907000", "142846.910000", "142846.912000", "142846.915000", "142846.917000", "142846.920000", "142926.871000", "142926.873000", "142926.876000", "142926.879000", "142926.881000", "142926.884000", "142926.886000", "142926.889000", "142926.892000", "142926.895000", "142926.897000", "142926.900000", "142926.902000", "142926.905000", "142926.908000", "142926.910000", "142926.927000", "142926.929000", "142926.932000", "142926.935000", "143006.871000", "143006.873000", "143006.876000", "143006.879000", "143006.881000", "143006.884000", "143006.886000", "143006.889000", "143006.892000", "143006.894000", "143006.897000", "143006.900000", "143006.902000", "143006.905000", "143006.907000", "143006.910000", "143006.913000", "143006.915000", "143006.918000", "143006.920000", "143046.871000", "143046.873000", "143046.876000", "143046.879000", "143046.881000", "143046.884000", "143046.886000", "143046.889000", "143046.892000", "143046.894000", "143046.897000", "143046.900000", "143046.902000", "143046.905000", "143046.907000", "143046.910000", "143046.912000", "143046.915000", "143046.918000", "143046.920000", "143126.872000", "143126.874000", "143126.877000", "143126.880000", "143126.882000", "143126.885000", "143126.887000", "143126.890000", "143126.893000", "143126.895000", "143126.898000", "143126.901000", "143126.903000", "143126.906000", "143126.908000", "143126.911000", "143126.914000", "143126.916000", "143126.919000", "143126.921000", "143206.870000", "143206.873000", "143206.876000", "143206.879000", "143206.881000", "143206.884000", "143206.886000", "143206.889000", "143206.892000", "143206.894000", "143206.897000", "143206.900000", "143206.902000", "143206.905000", "143206.907000", "143206.910000", "143206.913000", "143206.915000", "143206.918000", "143206.920000", "143245.412000", "143245.415000", "143245.418000", "143245.420000", "143245.423000", "143245.425000", "143245.428000", "143245.431000", "143245.433000", "143245.436000", "143245.438000", "143245.441000", "143245.443000", "143245.446000", "143245.449000", "143245.451000", "143245.454000", "143245.457000", "143245.459000"],
