{
  "AcquisitionMatrixPE": 96,
  "AcquisitionNumber": 1,
  "AcquisitionTime": "13:18:5.882500",
  "BandwidthPerPixelPhaseEncode": 20.425,
  "BaseResolution": 96,
  "BodyPartExamined": "BRAIN",
  "CoilCombinationMethod": "Sum of Squares",
  "ConsistencyInfo": "N4_VE11C_LATEST_20160120",
  "ConversionSoftware": "dcm2niix",
  "ConversionSoftwareVersion": "v1.0.20211006",
  "DerivedVendorReportedEchoSpacing": 0.000509996,
  "DeviceSerialNumber": "166054",
  "DwellTime": 2.3e-06,
  "EchoTime": 0.03,
  "EchoTrainLength": 96,
  "EffectiveEchoSpacing": 0.000509996,
  "FlipAngle": 75,
  "HeudiconvVersion": "0.11.3+d20220512",
  "ImageComments": "Unaliased MB2/PE2",
  "ImageOrientationPatientDICOM": [0.998969, 0.00866223, -0.0445626, -0.0294742, 0.870352, -0.491547],
  "ImageOrientationText": "Tra>Cor(-29.5)>Sag(-2.0)",
  "ImageType": [
    "ORIGINAL",
    "PRIMARY",
    "M",
    "MB",
    "ND",
    "MOSAIC"
],
  "ImagingFrequency": 123.26,
  "InPlanePhaseEncodingDirectionDICOM": "COL",
  "InstitutionAddress": "Street StreetNo,City,District,IL,ZIP",
  "InstitutionName": "Weizmann Institute",
  "InstitutionalDepartmentName": "Department",
  "MRAcquisitionType": "2D",
  "MagneticFieldStrength": 3,
  "Manufacturer": "Siemens",
  "ManufacturersModelName": "Prisma",
  "MatrixCoilMode": "SENSE",
  "Modality": "MR",
  "MultibandAccelerationFactor": 2,
  "PartialFourier": 1,
  "PatientPosition": "HFS",
  "PercentPhaseFOV": 100,
  "PercentSampling": 100,
  "PhaseEncodingDirection": "j-",
  "PhaseEncodingSteps": 96,
  "PhaseResolution": 1,
  "PixelBandwidth": 2265,
  "ProcedureStepDescription": "Weizmann^Sobel",
  "ProtocolName": "EPI_PSAP_iso2.5",
  "PulseSequenceDetails": "%CustomerSeq%\\cmrr_mbep2d_bold",
  "ReceiveCoilActiveElements": "HEA;HEP",
  "ReceiveCoilName": "Head_32",
  "ReconMatrixPE": 96,
  "RepetitionTime": 2,
  "SAR": 0.125979,
  "ScanOptions": "FS",
  "ScanningSequence": "EP",
  "SequenceName": "epfid2d1_96",
  "SequenceVariant": "SK\\SS",
  "SeriesDescription": "EPI_PSAP_iso2.5",
  "SeriesNumber": 8,
  "ShimSetting": [5895, -4003, -1862, 410, 95, -70, -63, 10],
  "SliceThickness": 2.5,
  "SliceTiming": [0, 0.92, 1.84, 0.7775, 1.6975, 0.6375, 1.5575, 0.495, 1.415, 0.355, 1.2725, 0.2125, 1.1325, 0.0725, 0.99, 1.91, 0.85, 1.7675, 0.7075, 1.6275, 0.5675, 1.485, 0.425, 1.345, 0.2825, 1.2025, 0.1425, 1.0625, 0, 0.92, 1.84, 0.7775, 1.6975, 0.6375, 1.5575, 0.495, 1.415, 0.355, 1.2725, 0.2125, 1.1325, 0.0725, 0.99, 1.91, 0.85, 1.7675, 0.7075, 1.6275, 0.5675, 1.485, 0.425, 1.345, 0.2825, 1.2025, 0.1425, 1.0625],
  "SoftwareVersions": "syngo MR E11",
  "SpacingBetweenSlices": 2.5,
  "StationName": "AWP166054",
  "TaskName": "PSAP",
  "TotalReadoutTime": 0.0484496,
  "TxRefAmp": 276.3,
  "VendorReportedEchoSpacing": 0.00051,
  "WipMemBlock": "dff42f61-0f2c-427c-9ea8-5a353c285b2a||Sequence: R016 ve11c/master r/e634e98; Dec 19 2017 11:00:25 by eja",
  "dcmmeta_affine": [
    [-2.497422695159912, -0.07368557155132294, -0.08631820231676102, 124.64802551269531],
    [-0.021655580028891563, 2.175879716873169, -1.2308851480484009, -65.65077209472656],
    [-0.1114066019654274, 1.2288684844970703, 2.1742746829986572, -105.15357208251953],
    [0.0, 0.0, 0.0, 1.0]
],
  "dcmmeta_reorient_transform": [
    [0.0, -1.0, 0.0, 95.0],
    [1.0, 0.0, 0.0, 0.0],
    [0.0, 0.0, 1.0, 0.0],
    [0.0, 0.0, 0.0, 1.0]
],
  "dcmmeta_shape": [96, 96, 56, 478],
  "dcmmeta_slice_dim": 2,
  "dcmmeta_version": 0.6,
  "global": {
    "const": {
      "AcquisitionMatrix": [96, 0, 0, 96],
      "AngioFlag": "N",
      "BitsAllocated": 16,
      "BitsStored": 16,
      "BodyPartExamined": "BRAIN",
      "Columns": 768,
      "EchoNumbers": 1,
      "EchoTime": 30.0,
      "EchoTrainLength": 96,
      "FlipAngle": 75.0,
      "HighBit": 15,
      "ImageOrientationPatient": [0.99896903693011, 0.00866223211805, -0.044562641188, -0.0294742272848, 0.87035189803936, -0.4915473970079],
      "ImagePositionPatient": [-932.02354043758, -879.42967197626, 461.92137015809],
      "ImageType": [
        "ORIGINAL",
        "PRIMARY",
        "M",
        "MB",
        "ND",
        "MOSAIC"
],
      "ImagedNucleus": "1H",
      "ImagingFrequency": 123.259933,
      "InPlanePhaseEncodingDirection": "COL",
      "MRAcquisitionType": "2D",
      "MagneticFieldStrength": 3.0,
      "Manufacturer": "SIEMENS",
      "ManufacturerModelName": "Prisma",
      "Modality": "MR",
      "NumberOfAverages": 1.0,
      "NumberOfPhaseEncodingSteps": 96,
      "PercentPhaseFieldOfView": 100.0,
      "PercentSampling": 100.0,
      "PerformedProcedureStepStartTime": "123133.251000",
      "PhotometricInterpretation": "MONOCHROME2",
      "PixelBandwidth": 2265.0,
      "PixelRepresentation": 0,
      "PixelSpacing": [2.5, 2.5],
      "ProtocolName": "EPI_PSAP_iso2.5",
      "RepetitionTime": 2000.0,
      "Rows": 768,
      "SAR": 0.12597943880696,
      "SamplesPerPixel": 1,
      "ScanOptions": "FS",
      "ScanningSequence": "EP",
      "SequenceName": "epfid2d1_96",
      "SequenceVariant": [
        "SK",
        "SS"
],
      "SeriesDescription": "EPI_PSAP_iso2.5",
      "SeriesNumber": 8,
      "SeriesTime": "131902.934000",
      "SliceLocation": -63.433432442593,
      "SliceThickness": 2.5,
      "SmallestImagePixelValue": 0,
      "SoftwareVersions": "syngo MR E11",
      "SpacingBetweenSlices": 2.4999999791265,
      "SpecificCharacterSet": "ISO_IR 100",
      "StudyID": "2",
      "StudyTime": "123133.211000",
      "TransmitCoilName": "Body",
      "VariableFlipAngleFlag": "N",
      "WindowCenterWidthExplanation": "Algo1",
      "dBdt": 0.0},
    "slices": {}
  },
  "time": {
    "samples": {
      "AcquisitionNumber": [1, 2, 3, 4, 5, 6, 7, 8, 9, 10, 11, 12, 13, 14, 15, 16, 17, 18, 19, 20, 21, 22, 23, 24, 25, 26, 27, 28, 29, 30, 31, 32, 33, 34, 35, 36, 37, 38, 39, 40, 41, 42, 43, 44, 45, 46, 47, 48, 49, 50, 51, 52, 53, 54, 55, 56, 57, 58, 59, 60, 61, 62, 63, 64, 65, 66, 67, 68, 69, 70, 71, 72, 73, 74, 75, 76, 77, 78, 79, 80, 81, 82, 83, 84, 85, 86, 87, 88, 89, 90, 91, 92, 93, 94, 95, 96, 97, 98, 99, 100, 101, 102, 103, 104, 105, 106, 107, 108, 109, 110, 111, 112, 113, 114, 115, 116, 117, 118, 119, 120, 121, 122, 123, 124, 125, 126, 127, 128, 129, 130, 131, 132, 133, 134, 135, 136, 137, 138, 139, 140, 141, 142, 143, 144, 145, 146, 147, 148, 149, 150, 151, 152, 153, 154, 155, 156, 157, 158, 159, 160, 161, 162, 163, 164, 165, 166, 167, 168, 169, 170, 171, 172, 173, 174, 175, 176, 177, 178, 179, 180, 181, 182, 183, 184, 185, 186, 187, 188, 189, 190, 191, 192, 193, 194, 195, 196, 197, 198, 199, 200, 201, 202, 203, 204, 205, 206, 207, 208, 209, 210, 211, 212, 213, 214, 215, 216, 217, 218, 219, 220, 221, 222, 223, 224, 225, 226, 227, 228, 229, 230, 231, 232, 233, 234, 235, 236, 237, 238, 239, 240, 241, 242, 243, 244, 245, 246, 247, 248, 249, 250, 251, 252, 253, 254, 255, 256, 257, 258, 259, 260, 261, 262, 263, 264, 265, 266, 267, 268, 269, 270, 271, 272, 273, 274, 275, 276, 277, 278, 279, 280, 281, 282, 283, 284, 285, 286, 287, 288, 289, 290, 291, 292, 293, 294, 295, 296, 297, 298, 299, 300, 301, 302, 303, 304, 305, 306, 307, 308, 309, 310, 311, 312, 313, 314, 315, 316, 317, 318, 319, 320, 321, 322, 323, 324, 325, 326, 327, 328, 329, 330, 331, 332, 333, 334, 335, 336, 337, 338, 339, 340, 341, 342, 343, 344, 345, 346, 347, 348, 349, 350, 351, 352, 353, 354, 355, 356, 357, 358, 359, 360, 361, 362, 363, 364, 365, 366, 367, 368, 369, 370, 371, 372, 373, 374, 375, 376, 377, 378, 379, 380, 381, 382, 383, 384, 385, 386, 387, 388, 389, 390, 391, 392, 393, 394, 395, 396, 397, 398, 399, 400, 401, 402, 403, 404, 405, 406, 407, 408, 409, 410, 411, 412, 413, 414, 415, 416, 417, 418, 419, 420, 421, 422, 423, 424, 425, 426, 427, 428, 429, 430, 431, 432, 433, 434, 435, 436, 437, 438, 439, 440, 441, 442, 443, 444, 445, 446, 447, 448, 449, 450, 451, 452, 453, 454, 455, 456, 457, 458, 459, 460, 461, 462, 463, 464, 465, 466, 467, 468, 469, 470, 471, 472, 473, 474, 475, 476, 477, 478],
      "AcquisitionTime": ["131805.882500", "131807.882500", "131809.882500", "131811.882500", "131813.882500", "131815.882500", "131817.882500", "131819.882500", "131821.882500", "131823.882500", "131825.882500", "131827.882500", "131829.882500", "131831.882500", "131833.882500", "131835.882500", "131837.882500", "131839.882500", "131841.882500", "131843.882500", "131845.882500", "131847.882500", "131849.882500", "131851.882500", "131853.882500", "131855.882500", "131857.882500", "131859.882500", "131901.882500", "131903.882500", "131905.882500", "131907.882500", "131909.882500", "131911.882500", "131913.882500", "131915.882500", "131917.882500", "131919.882500", "131921.882500", "131923.882500", "131925.882500", "131927.882500", "131929.882500", "131931.882500", "131933.882500", "131935.882500", "131937.882500", "131939.882500", "131941.882500", "131943.882500", "131945.882500", "131947.882500", "131949.882500", "131951.882500", "131953.882500", "131955.882500", "131957.882500", "131959.882500", "132001.882500", "132003.882500", "132005.882500", "132007.882500", "132009.882500", "132011.882500", "132013.882500", "132015.882500", "132017.882500", "132019.882500", "132021.882500", "132023.882500", "132025.882500", "132027.882500", "132029.882500", "132031.882500", "132033.882500", "132035.882500", "132037.882500", "132039.882500", "132041.882500", "132043.882500", "132045.882500", "132047.882500", "132049.882500", "132051.882500", "132053.882500", "132055.882500", "132057.882500", "132059.882500", "132101.882500", "132103.882500", "132105.882500", "132107.882500", "132109.882500", "132111.882500", "132113.882500", "132115.882500", "132117.882500", "132119.882500", "132121.882500", "132123.882500", "132125.882500", "132127.882500", "132129.882500", "132131.882500", "132133.882500", "132135.882500", "132137.882500", "132139.882500", "132141.882500", "132143.882500", "132145.882500", "132147.882500", "132149.882500", "132151.882500", "132153.882500", "132155.882500", "132157.882500", "132159.882500", "132201.882500", "132203.882500", "132205.882500", "132207.882500", "132209.882500", "132211.882500", "132213.882500", "132215.882500", "132217.882500", "132219.882500", "132221.882500", "132223.882500", "132225.882500", "132227.882500", "132229.882500", "132231.882500", "132233.882500", "132235.882500", "132237.882500", "132239.882500", "132241.882500", "132243.882500", "132245.882500", "132247.882500", "132249.882500", "132251.882500", "132253.882500", "132255.882500", "132257.882500", "132259.882500", "132301.882500", "132303.882500", "132305.882500", "132307.882500", "132309.882500", "132311.882500", "132313.882500", "132315.882500", "132317.882500", "132319.882500", "132321.882500", "132323.882500", "132325.882500", "132327.882500", "132329.882500", "132331.882500", "132333.882500", "132335.882500", "132337.882500", "132339.882500", "132341.882500", "132343.882500", "132345.882500", "132347.882500", "132349.882500", "132351.882500", "132353.882500", "132355.882500", "132357.882500", "132359.882500", "132401.882500", "132403.882500", "132405.882500", "132407.882500", "132409.882500", "132411.882500", "132413.882500", "132415.882500", "132417.882500", "132419.882500", "132421.882500", "132423.882500", "132425.882500", "132427.882500", "132429.882500", "132431.882500", "132433.882500", "132435.882500", "132437.882500", "132439.882500", "132441.882500", "132443.882500", "132445.882500", "132447.882500", "132449.882500", "132451.882500", "132453.882500", "132455.882500", "132457.882500", "132459.882500", "132501.882500", "132503.882500", "132505.882500", "132507.882500", "132509.882500", "132511.882500", "132513.882500", "132515.882500", "132517.882500", "132519.882500", "132521.882500", "132523.882500", "132525.882500", "132527.882500", "132529.882500", "132531.882500", "132533.882500", "132535.882500", "132537.882500", "132539.882500", "132541.882500", "132543.882500", "132545.882500", "132547.882500", "132549.882500", "132551.882500", "132553.882500", "132555.882500", "132557.882500", "132559.882500", "132601.882500", "132603.882500", "132605.882500", "132607.882500", "132609.882500", "132611.882500", "132613.882500", "132615.882500", "132617.882500", "132619.882500", "132621.882500", "132623.882500", "132625.882500", "132627.882500", "132629.882500", "132631.882500", "132633.882500", "132635.882500", "132637.882500", "132639.882500", "132641.882500", "132643.882500", "132645.882500", "132647.882500", "132649.882500", "132651.882500", "132653.882500", "132655.882500", "132657.882500", "132659.882500", "132701.882500", "132703.882500", "132705.882500", "132707.882500", "132709.882500", "132711.882500", "132713.882500", "132715.882500", "132717.882500", "132719.882500", "132721.882500", "132723.882500", "132725.882500", "132727.882500", "132729.882500", "132731.882500", "132733.882500", "132735.882500", "132737.882500", "132739.882500", "132741.882500", "132743.882500", "132745.882500", "132747.882500", "132749.882500", "132751.882500", "132753.882500", "132755.882500", "132757.882500", "132759.882500", "132801.882500", "132803.882500", "132805.882500", "132807.882500", "132809.882500", "132811.882500", "132813.882500", "132815.882500", "132817.882500", "132819.882500", "132821.882500", "132823.882500", "132825.882500", "132827.882500", "132829.882500", "132831.882500", "132833.882500", "132835.882500", "132837.882500", "132839.882500", "132841.882500", "132843.882500", "132845.882500", "132847.882500", "132849.882500", "132851.882500", "132853.882500", "132855.882500", "132857.882500", "132859.882500", "132901.882500", "132903.882500", "132905.882500", "132907.882500", "132909.882500", "132911.882500", "132913.882500", "132915.882500", "132917.882500", "132919.882500", "132921.882500", "132923.882500", "132925.882500", "132927.882500", "132929.882500", "132931.882500", "132933.882500", "132935.882500", "132937.882500", "132939.882500", "132941.882500", "132943.882500", "132945.882500", "132947.882500", "132949.882500", "132951.882500", "132953.882500", "132955.882500", "132957.882500", "132959.882500", "133001.882500", "133003.882500", "133005.882500", "133007.882500", "133009.882500", "133011.882500", "133013.882500", "133015.882500", "133017.882500", "133019.882500", "133021.882500", "133023.882500", "133025.882500", "133027.882500", "133029.882500", "133031.882500", "133033.882500", "133035.882500", "133037.882500", "133039.882500", "133041.882500", "133043.882500", "133045.882500", "133047.882500", "133049.882500", "133051.882500", "133053.882500", "133055.882500", "133057.882500", "133059.882500", "133101.882500", "133103.882500", "133105.882500", "133107.882500", "133109.882500", "133111.882500", "133113.882500", "133115.882500", "133117.882500", "133119.882500", "133121.882500", "133123.882500", "133125.882500", "133127.882500", "133129.882500", "133131.882500", "133133.882500", "133135.882500", "133137.882500", "133139.882500", "133141.882500", "133143.882500", "133145.882500", "133147.882500", "133149.882500", "133151.882500", "133153.882500", "133155.882500", "133157.882500", "133159.882500", "133201.882500", "133203.882500", "133205.882500", "133207.882500", "133209.882500", "133211.882500", "133213.882500", "133215.882500", "133217.882500", "133219.882500", "133221.882500", "133223.882500", "133225.882500", "133227.882500", "133229.882500", "133231.882500", "133233.882500", "133235.882500", "133237.882500", "133239.882500", "133241.882500", "133243.882500", "133245.882500", "133247.882500", "133249.882500", "133251.882500", "133253.882500", "133255.882500", "133257.882500", "133259.882500", "133301.882500", "133303.882500", "133305.882500", "133307.882500", "133309.882500", "133311.882500", "133313.882500", "133315.882500", "133317.882500", "133319.882500", "133321.882500", "133323.882500", "133325.882500", "133327.882500", "133329.882500", "133331.882500", "133333.882500", "133335.882500", "133337.882500", "133339.882500", "133341.882500", "133343.882500", "133345.882500", "133347.882500", "133349.882500", "133351.882500", "133353.882500", "133355.882500", "133357.882500", "133359.882500"],
      "ContentTime": ["131902.937000", "131902.940000", "131902.943000", "131902.947000", "131902.950000", "131902.953000", "131902.955000", "131902.958000", "131902.960000", "131902.963000", "131902.966000", "131902.968000", "131902.971000", "131902.973000", "131902.976000", "131902.979000", "131902.981000", "131902.984000", "131902.986000", "131902.989000", "131902.992000", "131902.994000", "131902.997000", "131903.000000", "131903.003000", "131903.006000", "131903.008000", "131903.011000", "131942.908000", "131942.910000", "131942.917000", "131942.920000", "131942.922000", "131942.925000", "131942.927000", "131942.930000", "131942.932000", "131942.935000", "131942.937000", "131942.940000", "131942.943000", "131942.945000", "131942.948000", "131942.950000", "131942.953000", "131942.955000", "131942.958000", "131942.960000", "132022.908000", "132022.910000", "132022.913000", "132022.915000", "132022.918000", "132022.921000", "132022.923000", "132022.926000", "132022.928000", "132022.931000", "132022.938000", "132022.940000", "132022.943000", "132022.945000", "132022.948000", "132022.951000", "132022.953000", "132022.956000", "132022.958000", "132022.961000", "132102.907000", "132102.910000", "132102.913000", "132102.915000", "132102.918000", "132102.928000", "132102.930000", "132102.933000", "132102.935000", "132102.938000", "132102.940000", "132102.943000", "132102.946000", "132102.949000", "132102.951000", "132102.954000", "132102.956000", "132102.959000", "132102.961000", "132102.964000", "132142.907000", "132142.910000", "132142.913000", "132142.915000", "132142.918000", "132142.921000", "132142.923000", "132142.926000", "132142.928000", "132142.931000", "132142.933000", "132142.936000", "132142.939000", "132142.941000", "132142.944000", "132142.946000", "132142.949000", "132142.951000", "132142.954000", "132142.956000", "132222.907000", "132222.909000", "132222.912000", "132222.914000", "132222.917000", "132222.920000", "132222.922000", "132222.925000", "132222.927000", "132222.930000", "132222.932000", "132222.935000", "132222.937000", "132222.940000", "132222.943000", "132222.945000", "132222.948000", "132222.950000", "132222.953000", "132222.955000", "132302.907000", "132302.910000", "132302.913000", "132302.915000", "132302.918000", "132302.920000", "132302.923000", "132302.925000", "132302.941000", "132302.943000", "132302.946000", "132302.948000", "132302.951000", "132302.954000", "132302.956000", "132302.959000", "132302.961000", "132302.964000", "132302.966000", "132302.969000", "132342.907000", "132342.910000", "132342.913000", "132342.916000", "132342.919000", "132342.921000", "132342.924000", "132342.926000", "132342.929000", "132342.931000", "132342.934000", "132342.936000", "132342.939000", "132342.941000", "132342.944000", "132342.946000", "132342.949000", "132342.952000", "132342.954000", "132342.957000", "132422.908000", "132422.910000", "132422.913000", "132422.915000", "132422.918000", "132422.921000", "132422.923000", "132422.926000", "132422.928000", "132422.931000", "132422.934000", "132422.936000", "132422.939000", "132422.941000", "132422.944000", "132422.946000", "132422.949000", "132422.952000", "132422.954000", "132422.957000", "132502.907000", "132502.910000", "132502.912000", "132502.915000", "132502.918000", "132502.920000", "132502.923000", "132502.925000", "132502.928000", "132502.930000", "132502.933000", "132502.935000", "132502.938000", "132502.941000", "132502.943000", "132502.946000", "132502.948000", "132502.951000", "132502.953000", "132502.956000", "132542.907000", "132542.910000", "132542.913000", "132542.915000", "132542.918000", "132542.921000", "132542.923000", "132542.926000", "132542.928000", "132542.931000", "132542.933000", "132542.936000", "132542.939000", "132542.941000", "132542.944000", "132542.946000", "132542.949000", "132542.955000", "132542.957000", "132542.960000", "132602.908000", "132602.910000", "132602.913000", "132602.915000", "132602.918000", "132602.921000", "132602.923000", "132602.926000", "132602.928000", "132602.931000", "132702.907000", "132702.909000", "132702.912000", "132702.915000", "132702.917000", "132702.920000", "132702.923000", "132702.925000", "132702.928000", "132702.930000", "132702.933000", "132702.935000", "132702.938000", "132702.940000", "132702.943000", "132702.946000", "132702.948000", "132702.951000", "132702.953000", "132702.956000", "132702.958000", "132702.961000", "132702.963000", "132702.966000", "132702.969000", "132702.971000", "132702.974000", "132702.976000", "132702.979000", "132702.981000", "132742.908000", "132742.910000", "132742.913000", "132742.915000", "132742.918000", "132742.921000", "132742.923000", "132742.926000", "132742.928000", "132742.931000", "132742.933000", "132742.936000", "132742.939000", "132742.941000", "132742.944000", "132742.946000", "132742.949000", "132742.951000", "132742.954000", "132742.957000", "132842.908000", "132842.911000", "132842.913000", "132842.916000", "132842.918000", "132842.921000", "132842.924000", "132842.926000", "132842.929000", "132842.931000", "132842.934000", "132842.936000", "132842.939000", "132842.942000", "132842.944000", "132842.947000", "132842.949000", "132842.952000", "132842.954000", "132842.957000", "132842.959000", "132842.962000", "132842.964000", "132842.967000", "132842.969000", "132842.972000", "132842.975000", "132842.977000", "132842.980000", "132842.982000", "132922.906000", "132922.909000", "132922.912000", "132922.914000", "132922.917000", "132922.919000", "132922.922000", "132922.925000", "132922.927000", "132922.930000", "132922.932000", "132922.935000", "132922.937000", "132922.940000", "132922.943000", "132922.945000", "132922.948000", "132922.950000", "132922.953000", "132922.955000", "133002.908000", "133002.910000", "133002.913000", "133002.916000", "133002.919000", "133002.921000", "133002.924000", "133002.926000", "133002.929000", "133002.931000", "133002.934000", "133002.937000", "133002.939000", "133002.942000", "133002.944000", "133002.947000", "133002.949000", "133002.952000", "133002.954000", "133002.957000", "133042.908000", "133042.910000", "133042.913000", "133042.916000", "133042.918000", "133042.921000", "133042.923000", "133042.926000", "133042.928000", "133042.931000", "133042.934000", "133042.936000", "133042.939000", "133042.941000", "133042.944000", "133042.947000", "133042.949000", "133042.952000", "133042.954000", "133042.957000", "133122.907000", "133122.910000", "133122.913000", "133122.915000", "133122.918000", "133122.920000", "133122.923000", "133122.926000", "133122.928000", "133122.931000", "133122.933000", "133122.936000", "133122.939000", "133122.941000", "133122.944000", "133122.946000", "133122.949000", "133122.951000", "133122.954000", "133122.957000", "133222.908000", "133222.911000", "133222.913000", "133222.916000", "133222.919000", "133222.921000", "133222.924000", "133222.926000", "133222.929000", "133222.931000", "133222.934000", "133222.937000", "133222.939000", "133222.942000", "133222.945000", "133222.947000", "133222.950000", "133222.952000", "133222.955000", "133222.957000", "133222.960000", "133222.962000", "133222.965000", "133222.968000", "133222.970000", "133222.973000", "133222.975000", "133222.978000", "133222.980000", "133222.983000", "133302.908000", "133302.910000", "133302.913000", "133302.915000", "133302.918000", "133302.921000", "133302.923000", "133302.926000", "133302.928000", "133302.931000", "133302.933000", "133302.936000", "133302.939000", "133302.941000", "133302.944000", "133302.946000", "133302.949000", "133302.951000", "133302.954000", "133302.956000", "133342.907000", "133342.910000", "133342.913000", "133342.915000", "133342.918000", "133342.921000", "133342.923000", "133342.926000", "133342.929000", "133342.931000", "133342.934000", "133342.936000", "133342.946000", "133342.949000", "133342.952000", "133342.954000", "133342.957000", "133342.959000", "133342.962000", "133342.964000", "133402.937000", "133402.940000", "133402.942000", "133402.945000", "133402.948000", "133402.950000", "133402.953000", "133402.956000", "133402.958000", "133402.961000"],
