{
  "AcquisitionMatrixPE": 96,
  "AcquisitionNumber": 1,
  "AcquisitionTime": "13:51:31.710000",
  "BandwidthPerPixelPhaseEncode": 20.425,
  "BaseResolution": 96,
  "BodyPartExamined": "BRAIN",
  "CoilCombinationMethod": "Sum of Squares",
  "ConsistencyInfo": "N4_VE11C_LATEST_20160120",
  "ConversionSoftware": "dcm2niix",
  "ConversionSoftwareVersion": "v1.0.20211006",
  "DerivedVendorReportedEchoSpacing": 0.000509996,
  "DeviceSerialNumber": "166054",
  "DwellTime": 2.3e-06,
  "EchoTime": 0.03,
  "EchoTrainLength": 96,
  "EffectiveEchoSpacing": 0.000509996,
  "FlipAngle": 75,
  "HeudiconvVersion": "0.11.3+d20220512",
  "ImageComments": "Unaliased MB2/PE2",
  "ImageOrientationPatientDICOM": [0.994211, -0.00363311, 0.107383, 0.0432343, 0.928474, -0.368872],
  "ImageOrientationText": "Tra>Cor(-21.9)>Sag(5.6)",
  "ImageType": [
    "ORIGINAL",
    "PRIMARY",
    "M",
    "MB",
    "ND",
    "MOSAIC"
],
  "ImagingFrequency": 123.26,
  "InPlanePhaseEncodingDirectionDICOM": "COL",
  "InstitutionAddress": "Street StreetNo,City,District,IL,ZIP",
  "InstitutionName": "Weizmann Institute",
  "InstitutionalDepartmentName": "Department",
  "MRAcquisitionType": "2D",
  "MagneticFieldStrength": 3,
  "Manufacturer": "Siemens",
  "ManufacturersModelName": "Prisma",
  "MatrixCoilMode": "SENSE",
  "Modality": "MR",
  "MultibandAccelerationFactor": 2,
  "PartialFourier": 1,
  "PatientPosition": "HFS",
  "PercentPhaseFOV": 100,
  "PercentSampling": 100,
  "PhaseEncodingDirection": "j-",
  "PhaseEncodingSteps": 96,
  "PhaseResolution": 1,
  "PixelBandwidth": 2265,
  "ProcedureStepDescription": "Weizmann^Sobel",
  "ProtocolName": "EPI_PSAP_iso2.5",
  "PulseSequenceDetails": "%CustomerSeq%\\cmrr_mbep2d_bold",
  "ReceiveCoilActiveElements": "HEA;HEP",
  "ReceiveCoilName": "Head_32",
  "ReconMatrixPE": 96,
  "RepetitionTime": 2,
  "SAR": 0.1062,
  "ScanOptions": "FS",
  "ScanningSequence": "EP",
  "SequenceName": "epfid2d1_96",
  "SequenceVariant": "SK\\SS",
  "SeriesDescription": "EPI_PSAP_iso2.5",
  "SeriesNumber": 17,
  "ShimSetting": [5931, -4108, -1940, 490, 70, 116, 10, -45],
  "SliceThickness": 2.5,
  "SliceTiming": [0, 0.92, 1.84, 0.78, 1.6975, 0.6375, 1.5575, 0.495, 1.415, 0.355, 1.275, 0.2125, 1.1325, 0.0725, 0.99, 1.91, 0.85, 1.77, 0.7075, 1.6275, 0.5675, 1.485, 0.425, 1.345, 0.285, 1.2025, 0.1425, 1.0625, 0, 0.92, 1.84, 0.78, 1.6975, 0.6375, 1.5575, 0.495, 1.415, 0.355, 1.275, 0.2125, 1.1325, 0.0725, 0.99, 1.91, 0.85, 1.77, 0.7075, 1.6275, 0.5675, 1.485, 0.425, 1.345, 0.285, 1.2025, 0.1425, 1.0625],
  "SoftwareVersions": "syngo MR E11",
  "SpacingBetweenSlices": 2.5,
  "StationName": "AWP166054",
  "TaskName": "PSAP",
  "TotalReadoutTime": 0.0484496,
  "TxRefAmp": 242.8,
  "VendorReportedEchoSpacing": 0.00051,
  "WipMemBlock": "35b36892-265f-49a3-8e29-94804d1f89e1||Sequence: R016 ve11c/master r/e634e98; Dec 19 2017 11:00:25 by eja",
  "dcmmeta_affine": [
    [-2.485527515411377, 0.1080857440829277, 0.24590657651424408, 110.10681915283203],
    [0.009082779288291931, 2.321185350418091, -0.9284483194351196, -81.7042007446289],
    [0.26845869421958923, 0.9221801161766052, 2.308140754699707, -154.65306091308594],
    [0.0, 0.0, 0.0, 1.0]
],
  "dcmmeta_reorient_transform": [
    [0.0, -1.0, 0.0, 95.0],
    [1.0, 0.0, 0.0, 0.0],
    [0.0, 0.0, 1.0, 0.0],
    [0.0, 0.0, 0.0, 1.0]
],
  "dcmmeta_shape": [96, 96, 56, 503],
  "dcmmeta_slice_dim": 2,
  "dcmmeta_version": 0.6,
  "global": {
    "const": {
      "AcquisitionMatrix": [96, 0, 0, 96],
      "AngioFlag": "N",
      "BitsAllocated": 16,
      "BitsStored": 16,
      "BodyPartExamined": "BRAIN",
      "Columns": 768,
      "EchoNumbers": 1,
      "EchoTime": 30.0,
      "EchoTrainLength": 96,
      "FlipAngle": 75.0,
      "HighBit": 15,
      "ImageOrientationPatient": [0.99421103797178, -0.0036331116387, 0.10738348324993, 0.04323429781709, 0.92847412662558, -0.3688720532639],
      "ImagePositionPatient": [-991.82904739699, -915.67485851826, 152.60445140776],
      "ImageType": [
        "ORIGINAL",
        "PRIMARY",
        "M",
        "MB",
        "ND",
        "MOSAIC"
],
      "ImagedNucleus": "1H",
      "ImagingFrequency": 123.260371,
      "InPlanePhaseEncodingDirection": "COL",
      "MRAcquisitionType": "2D",
      "MagneticFieldStrength": 3.0,
      "Manufacturer": "SIEMENS",
      "ManufacturerModelName": "Prisma",
      "Modality": "MR",
      "NumberOfAverages": 1.0,
      "NumberOfPhaseEncodingSteps": 96,
      "PercentPhaseFieldOfView": 100.0,
      "PercentSampling": 100.0,
      "PerformedProcedureStepStartTime": "134359.662000",
      "PhotometricInterpretation": "MONOCHROME2",
      "PixelBandwidth": 2265.0,
      "PixelRepresentation": 0,
      "PixelSpacing": [2.5, 2.5],
      "ProtocolName": "EPI_PSAP_iso2.5",
      "RepetitionTime": 2000.0,
      "Rows": 768,
      "SAR": 0.10620022915465,
      "SamplesPerPixel": 1,
      "ScanOptions": "FS",
      "ScanningSequence": "EP",
      "SequenceName": "epfid2d1_96",
      "SequenceVariant": [
        "SK",
        "SS"
],
      "SeriesDescription": "EPI_PSAP_iso2.5",
      "SeriesNumber": 17,
      "SeriesTime": "135225.748000",
      "SliceLocation": -101.61076578031,
      "SliceThickness": 2.5,
      "SmallestImagePixelValue": 0,
      "SoftwareVersions": "syngo MR E11",
      "SpacingBetweenSlices": 2.5000000251703,
      "SpecificCharacterSet": "ISO_IR 100",
      "StudyID": "1",
      "StudyTime": "134359.581000",
      "TransmitCoilName": "Body",
      "VariableFlipAngleFlag": "N",
      "WindowCenterWidthExplanation": "Algo1",
      "dBdt": 0.0},
    "slices": {}
  },
  "time": {
    "samples": {
      "AcquisitionNumber": [1, 2, 3, 4, 5, 6, 7, 8, 9, 10, 11, 12, 13, 14, 15, 16, 17, 18, 19, 20, 21, 22, 23, 24, 25, 26, 27, 28, 29, 30, 31, 32, 33, 34, 35, 36, 37, 38, 39, 40, 41, 42, 43, 44, 45, 46, 47, 48, 49, 50, 51, 52, 53, 54, 55, 56, 57, 58, 59, 60, 61, 62, 63, 64, 65, 66, 67, 68, 69, 70, 71, 72, 73, 74, 75, 76, 77, 78, 79, 80, 81, 82, 83, 84, 85, 86, 87, 88, 89, 90, 91, 92, 93, 94, 95, 96, 97, 98, 99, 100, 101, 102, 103, 104, 105, 106, 107, 108, 109, 110, 111, 112, 113, 114, 115, 116, 117, 118, 119, 120, 121, 122, 123, 124, 125, 126, 127, 128, 129, 130, 131, 132, 133, 134, 135, 136, 137, 138, 139, 140, 141, 142, 143, 144, 145, 146, 147, 148, 149, 150, 151, 152, 153, 154, 155, 156, 157, 158, 159, 160, 161, 162, 163, 164, 165, 166, 167, 168, 169, 170, 171, 172, 173, 174, 175, 176, 177, 178, 179, 180, 181, 182, 183, 184, 185, 186, 187, 188, 189, 190, 191, 192, 193, 194, 195, 196, 197, 198, 199, 200, 201, 202, 203, 204, 205, 206, 207, 208, 209, 210, 211, 212, 213, 214, 215, 216, 217, 218, 219, 220, 221, 222, 223, 224, 225, 226, 227, 228, 229, 230, 231, 232, 233, 234, 235, 236, 237, 238, 239, 240, 241, 242, 243, 244, 245, 246, 247, 248, 249, 250, 251, 252, 253, 254, 255, 256, 257, 258, 259, 260, 261, 262, 263, 264, 265, 266, 267, 268, 269, 270, 271, 272, 273, 274, 275, 276, 277, 278, 279, 280, 281, 282, 283, 284, 285, 286, 287, 288, 289, 290, 291, 292, 293, 294, 295, 296, 297, 298, 299, 300, 301, 302, 303, 304, 305, 306, 307, 308, 309, 310, 311, 312, 313, 314, 315, 316, 317, 318, 319, 320, 321, 322, 323, 324, 325, 326, 327, 328, 329, 330, 331, 332, 333, 334, 335, 336, 337, 338, 339, 340, 341, 342, 343, 344, 345, 346, 347, 348, 349, 350, 351, 352, 353, 354, 355, 356, 357, 358, 359, 360, 361, 362, 363, 364, 365, 366, 367, 368, 369, 370, 371, 372, 373, 374, 375, 376, 377, 378, 379, 380, 381, 382, 383, 384, 385, 386, 387, 388, 389, 390, 391, 392, 393, 394, 395, 396, 397, 398, 399, 400, 401, 402, 403, 404, 405, 406, 407, 408, 409, 410, 411, 412, 413, 414, 415, 416, 417, 418, 419, 420, 421, 422, 423, 424, 425, 426, 427, 428, 429, 430, 431, 432, 433, 434, 435, 436, 437, 438, 439, 440, 441, 442, 443, 444, 445, 446, 447, 448, 449, 450, 451, 452, 453, 454, 455, 456, 457, 458, 459, 460, 461, 462, 463, 464, 465, 466, 467, 468, 469, 470, 471, 472, 473, 474, 475, 476, 477, 478, 479, 480, 481, 482, 483, 484, 485, 486, 487, 488, 489, 490, 491, 492, 493, 494, 495, 496, 497, 498, 499, 500, 501, 502, 503],
      "AcquisitionTime": ["135131.710000", "135133.710000", "135135.710000", "135137.710000", "135139.710000", "135141.710000", "135143.710000", "135145.710000", "135147.710000", "135149.710000", "135151.710000", "135153.710000", "135155.710000", "135157.710000", "135159.710000", "135201.710000", "135203.710000", "135205.710000", "135207.710000", "135209.710000", "135211.710000", "135213.710000", "135215.710000", "135217.710000", "135219.710000", "135221.710000", "135223.710000", "135225.710000", "135227.710000", "135229.710000", "135231.710000", "135233.710000", "135235.710000", "135237.710000", "135239.710000", "135241.710000", "135243.710000", "135245.710000", "135247.710000", "135249.710000", "135251.710000", "135253.710000", "135255.710000", "135257.710000", "135259.710000", "135301.710000", "135303.710000", "135305.710000", "135307.710000", "135309.710000", "135311.710000", "135313.710000", "135315.710000", "135317.710000", "135319.710000", "135321.710000", "135323.710000", "135325.710000", "135327.710000", "135329.710000", "135331.710000", "135333.710000", "135335.710000", "135337.710000", "135339.710000", "135341.710000", "135343.710000", "135345.710000", "135347.710000", "135349.710000", "135351.710000", "135353.710000", "135355.710000", "135357.710000", "135359.710000", "135401.710000", "135403.710000", "135405.710000", "135407.710000", "135409.710000", "135411.710000", "135413.710000", "135415.710000", "135417.710000", "135419.710000", "135421.710000", "135423.710000", "135425.710000", "135427.710000", "135429.710000", "135431.710000", "135433.710000", "135435.710000", "135437.710000", "135439.710000", "135441.710000", "135443.710000", "135445.710000", "135447.710000", "135449.710000", "135451.710000", "135453.710000", "135455.710000", "135457.710000", "135459.710000", "135501.710000", "135503.710000", "135505.710000", "135507.710000", "135509.710000", "135511.710000", "135513.710000", "135515.710000", "135517.710000", "135519.710000", "135521.710000", "135523.710000", "135525.710000", "135527.710000", "135529.710000", "135531.710000", "135533.710000", "135535.710000", "135537.710000", "135539.710000", "135541.710000", "135543.710000", "135545.710000", "135547.710000", "135549.710000", "135551.710000", "135553.710000", "135555.710000", "135557.710000", "135559.710000", "135601.710000", "135603.710000", "135605.710000", "135607.710000", "135609.710000", "135611.710000", "135613.710000", "135615.710000", "135617.710000", "135619.710000", "135621.710000", "135623.710000", "135625.710000", "135627.710000", "135629.710000", "135631.710000", "135633.710000", "135635.710000", "135637.710000", "135639.710000", "135641.710000", "135643.710000", "135645.710000", "135647.710000", "135649.710000", "135651.710000", "135653.710000", "135655.710000", "135657.710000", "135659.710000", "135701.710000", "135703.710000", "135705.710000", "135707.710000", "135709.710000", "135711.710000", "135713.710000", "135715.710000", "135717.710000", "135719.710000", "135721.710000", "135723.710000", "135725.710000", "135727.710000", "135729.710000", "135731.710000", "135733.710000", "135735.710000", "135737.710000", "135739.710000", "135741.710000", "135743.710000", "135745.710000", "135747.710000", "135749.710000", "135751.710000", "135753.710000", "135755.710000", "135757.710000", "135759.710000", "135801.710000", "135803.710000", "135805.710000", "135807.710000", "135809.710000", "135811.710000", "135813.710000", "135815.710000", "135817.710000", "135819.710000", "135821.710000", "135823.710000", "135825.710000", "135827.710000", "135829.710000", "135831.710000", "135833.710000", "135835.710000", "135837.710000", "135839.710000", "135841.710000", "135843.710000", "135845.710000", "135847.710000", "135849.710000", "135851.710000", "135853.710000", "135855.710000", "135857.710000", "135859.710000", "135901.710000", "135903.710000", "135905.710000", "135907.710000", "135909.710000", "135911.710000", "135913.710000", "135915.710000", "135917.710000", "135919.710000", "135921.710000", "135923.710000", "135925.710000", "135927.710000", "135929.710000", "135931.710000", "135933.710000", "135935.710000", "135937.710000", "135939.710000", "135941.710000", "135943.710000", "135945.710000", "135947.710000", "135949.710000", "135951.710000", "135953.710000", "135955.710000", "135957.710000", "135959.710000", "140001.710000", "140003.710000", "140005.710000", "140007.710000", "140009.710000", "140011.710000", "140013.710000", "140015.710000", "140017.710000", "140019.710000", "140021.710000", "140023.710000", "140025.710000", "140027.710000", "140029.710000", "140031.710000", "140033.710000", "140035.710000", "140037.710000", "140039.710000", "140041.710000", "140043.710000", "140045.710000", "140047.710000", "140049.710000", "140051.710000", "140053.710000", "140055.710000", "140057.710000", "140059.710000", "140101.710000", "140103.710000", "140105.710000", "140107.710000", "140109.710000", "140111.710000", "140113.710000", "140115.710000", "140117.710000", "140119.710000", "140121.710000", "140123.710000", "140125.710000", "140127.710000", "140129.710000", "140131.710000", "140133.710000", "140135.710000", "140137.710000", "140139.710000", "140141.710000", "140143.710000", "140145.710000", "140147.710000", "140149.710000", "140151.710000", "140153.710000", "140155.710000", "140157.710000", "140159.710000", "140201.710000", "140203.710000", "140205.710000", "140207.710000", "140209.710000", "140211.710000", "140213.710000", "140215.710000", "140217.710000", "140219.710000", "140221.710000", "140223.710000", "140225.710000", "140227.710000", "140229.710000", "140231.710000", "140233.710000", "140235.710000", "140237.710000", "140239.710000", "140241.710000", "140243.710000", "140245.710000", "140247.710000", "140249.710000", "140251.710000", "140253.710000", "140255.710000", "140257.710000", "140259.710000", "140301.710000", "140303.710000", "140305.710000", "140307.710000", "140309.710000", "140311.710000", "140313.710000", "140315.710000", "140317.710000", "140319.710000", "140321.710000", "140323.710000", "140325.710000", "140327.710000", "140329.710000", "140331.710000", "140333.710000", "140335.710000", "140337.710000", "140339.710000", "140341.710000", "140343.710000", "140345.710000", "140347.710000", "140349.710000", "140351.710000", "140353.710000", "140355.710000", "140357.710000", "140359.710000", "140401.710000", "140403.710000", "140405.710000", "140407.710000", "140409.710000", "140411.710000", "140413.710000", "140415.710000", "140417.710000", "140419.710000", "140421.710000", "140423.710000", "140425.710000", "140427.710000", "140429.710000", "140431.710000", "140433.710000", "140435.710000", "140437.710000", "140439.710000", "140441.710000", "140443.710000", "140445.710000", "140447.710000", "140449.710000", "140451.710000", "140453.710000", "140455.710000", "140457.710000", "140459.710000", "140501.710000", "140503.710000", "140505.710000", "140507.710000", "140509.710000", "140511.710000", "140513.710000", "140515.710000", "140517.710000", "140519.710000", "140521.710000", "140523.710000", "140525.710000", "140527.710000", "140529.710000", "140531.710000", "140533.710000", "140535.710000", "140537.710000", "140539.710000", "140541.710000", "140543.710000", "140545.710000", "140547.710000", "140549.710000", "140551.710000", "140553.710000", "140555.710000", "140557.710000", "140559.710000", "140601.710000", "140603.710000", "140605.710000", "140607.710000", "140609.710000", "140611.710000", "140613.710000", "140615.710000", "140617.710000", "140619.710000", "140621.710000", "140623.710000", "140625.710000", "140627.710000", "140629.710000", "140631.710000", "140633.710000", "140635.710000", "140637.710000", "140639.710000", "140641.710000", "140643.710000", "140645.710000", "140647.710000", "140649.710000", "140651.710000", "140653.710000", "140655.710000", "140657.710000", "140659.710000", "140701.710000", "140703.710000", "140705.710000", "140707.710000", "140709.710000", "140711.710000", "140713.710000", "140715.710000", "140717.710000", "140719.710000", "140721.710000", "140723.710000", "140725.710000", "140727.710000", "140729.710000", "140731.710000", "140733.710000", "140735.710000", "140737.710000", "140739.710000", "140741.710000", "140743.710000", "140745.710000", "140747.710000", "140749.710000", "140751.710000", "140753.710000", "140755.710000", "140757.710000", "140759.710000", "140801.710000", "140803.710000", "140805.710000", "140807.710000", "140809.710000", "140811.710000", "140813.710000", "140815.710000"],
      "ContentTime": ["135225.750000", "135225.753000", "135225.756000", "135225.759000", "135225.761000", "135225.764000", "135225.766000", "135225.769000", "135225.772000", "135225.781000", "135225.784000", "135225.787000", "135225.789000", "135225.792000", "135225.794000", "135225.797000", "135225.799000", "135225.805000", "135225.807000", "135225.810000", "135225.812000", "135225.815000", "135225.818000", "135225.820000", "135225.823000", "135225.825000", "135305.721000", "135305.724000", "135305.727000", "135305.729000", "135305.732000", "135305.734000", "135305.737000", "135305.740000", "135305.742000", "135305.745000", "135305.747000", "135305.750000", "135305.752000", "135305.755000", "135305.758000", "135305.760000", "135305.763000", "135305.765000", "135305.768000", "135305.771000", "135345.721000", "135345.724000", "135345.727000", "135345.738000", "135345.741000", "135345.743000", "135345.746000", "135345.748000", "135345.751000", "135345.753000", "135345.756000", "135345.758000", "135345.761000", "135345.764000", "135345.766000", "135345.769000", "135345.772000", "135345.774000", "135345.777000", "135345.779000", "135425.721000", "135425.724000", "135425.727000", "135425.729000", "135425.732000", "135425.735000", "135425.737000", "135425.740000", "135425.742000", "135425.745000", "135425.748000", "135425.750000", "135425.753000", "135425.755000", "135425.758000", "135425.761000", "135425.763000", "135425.766000", "135425.768000", "135425.771000", "135505.722000", "135505.724000", "135505.727000", "135505.729000", "135505.732000", "135505.735000", "135505.737000", "135505.740000", "135505.742000", "135505.753000", "135505.756000", "135505.758000", "135505.761000", "135505.764000", "135505.766000", "135505.769000", "135505.772000", "135505.774000", "135505.777000", "135505.779000", "135545.721000", "135545.724000", "135545.727000", "135545.729000", "135545.732000", "135545.735000", "135545.737000", "135545.740000", "135545.742000", "135545.745000", "135545.748000", "135545.750000", "135545.753000", "135545.755000", "135545.758000", "135545.760000", "135545.763000", "135545.766000", "135545.768000", "135545.771000", "135625.721000", "135625.724000", "135625.727000", "135625.729000", "135625.732000", "135625.735000", "135625.737000", "135625.740000", "135625.743000", "135625.745000", "135625.748000", "135625.750000", "135625.753000", "135625.756000", "135625.758000", "135625.761000", "135625.764000", "135625.766000", "135625.769000", "135625.771000", "135705.721000", "135705.724000", "135705.727000", "135705.729000", "135705.732000", "135705.735000", "135705.738000", "135705.740000", "135705.743000", "135705.745000", "135705.748000", "135705.751000", "135705.753000", "135705.756000", "135705.758000", "135705.761000", "135705.764000", "135705.766000", "135705.769000", "135705.771000", "135745.721000", "135745.724000", "135745.727000", "135745.729000", "135745.732000", "135745.735000", "135745.737000", "135745.740000", "135745.742000", "135745.745000", "135745.747000", "135745.750000", "135745.753000", "135745.755000", "135745.758000", "135745.760000", "135745.763000", "135745.766000", "135745.768000", "135745.771000", "135825.721000", "135825.724000", "135825.727000", "135825.730000", "135825.732000", "135825.735000", "135825.737000", "135825.740000", "135825.743000", "135825.745000", "135825.748000", "135825.750000", "135825.753000", "135825.755000", "135825.758000", "135825.760000", "135825.763000", "135825.766000", "135825.768000", "135825.771000", "135905.722000", "135905.724000", "135905.727000", "135905.729000", "135905.732000", "135905.735000", "135905.737000", "135905.740000", "135905.743000", "135905.745000", "135905.748000", "135905.750000", "135905.753000", "135905.755000", "135905.761000", "135905.763000", "135905.766000", "135905.769000", "135905.771000", "135905.774000", "135945.722000", "135945.724000", "135945.727000", "135945.730000", "135945.733000", "135945.735000", "135945.738000", "135945.740000", "135945.743000", "135945.746000", "135945.748000", "135945.751000", "135945.753000", "135945.756000", "135945.758000", "135945.761000", "135945.764000", "135945.766000", "135945.769000", "135945.771000", "140025.722000", "140025.725000", "140025.728000", "140025.730000", "140025.733000", "140025.736000", "140025.738000", "140025.741000", "140025.743000", "140025.746000", "140025.749000", "140025.751000", "140025.754000", "140025.756000", "140025.759000", "140025.762000", "140025.764000", "140025.767000", "140025.769000", "140025.772000", "140105.722000", "140105.724000", "140105.727000", "140105.729000", "140105.733000", "140105.735000", "140105.738000", "140105.740000", "140105.743000", "140105.745000", "140105.748000", "140105.751000", "140105.753000", "140105.756000", "140105.758000", "140105.761000", "140105.764000", "140105.766000", "140105.769000", "140105.771000", "140145.721000", "140145.724000", "140145.738000", "140145.741000", "140145.743000", "140145.746000", "140145.748000", "140145.751000", "140145.753000", "140145.756000", "140145.759000", "140145.761000", "140145.764000", "140145.766000", "140145.769000", "140145.772000", "140145.774000", "140145.777000", "140145.779000", "140145.782000", "140225.722000", "140225.724000", "140225.727000", "140225.729000", "140225.732000", "140225.735000", "140225.737000", "140225.740000", "140225.742000", "140225.745000", "140225.748000", "140225.750000", "140225.753000", "140225.755000", "140225.758000", "140225.761000", "140225.763000", "140225.766000", "140225.768000", "140225.771000", "140305.721000", "140305.724000", "140305.727000", "140305.729000", "140305.732000", "140305.735000", "140305.737000", "140305.740000", "140305.743000", "140305.745000", "140305.748000", "140305.750000", "140305.753000", "140305.756000", "140305.759000", "140305.761000", "140305.764000", "140305.766000", "140305.769000", "140305.772000", "140345.721000", "140345.724000", "140345.727000", "140345.729000", "140345.732000", "140345.735000", "140345.737000", "140345.740000", "140345.743000", "140345.745000", "140345.748000", "140345.750000", "140345.753000", "140345.756000", "140345.758000", "140345.761000", "140345.763000", "140345.766000", "140345.768000", "140345.771000", "140425.721000", "140425.724000", "140425.727000", "140425.729000", "140425.732000", "140425.735000", "140425.737000", "140425.740000", "140425.742000", "140425.745000", "140425.748000", "140425.750000", "140425.753000", "140425.755000", "140425.758000", "140425.761000", "140425.763000", "140425.766000", "140425.768000", "140425.771000", "140505.723000", "140505.725000", "140505.728000", "140505.731000", "140505.733000", "140505.736000", "140505.738000", "140505.741000", "140505.744000", "140505.746000", "140505.749000", "140505.752000", "140505.754000", "140505.757000", "140505.759000", "140505.762000", "140505.765000", "140505.767000", "140505.770000", "140505.772000", "140545.722000", "140545.724000", "140545.727000", "140545.730000", "140545.732000", "140545.735000", "140545.738000", "140545.740000", "140545.743000", "140545.745000", "140545.748000", "140545.751000", "140545.753000", "140545.756000", "140545.758000", "140545.761000", "140545.764000", "140545.766000", "140545.769000", "140545.771000", "140625.722000", "140625.724000", "140625.727000", "140625.730000", "140625.732000", "140625.735000", "140625.738000", "140625.740000", "140625.743000", "140625.745000", "140625.748000", "140625.750000", "140625.753000", "140625.756000", "140625.758000", "140625.761000", "140625.764000", "140625.766000", "140625.769000", "140625.771000", "140705.721000", "140705.724000", "140705.727000", "140705.729000", "140705.732000", "140705.735000", "140705.737000", "140705.740000", "140705.742000", "140705.745000", "140705.748000", "140705.750000", "140705.753000", "140705.755000", "140705.758000", "140705.760000", "140705.763000", "140705.766000", "140705.768000", "140705.771000", "140745.722000", "140745.725000", "140745.738000", "140745.741000", "140745.744000", "140745.747000", "140745.749000", "140745.752000", "140745.754000", "140745.757000", "140745.759000", "140745.762000", "140745.765000", "140745.767000", "140745.770000", "140745.772000", "140745.775000", "140745.778000", "140745.780000", "140745.783000", "140818.144000", "140818.147000", "140818.150000", "140818.152000", "140818.155000", "140818.157000", "140818.160000", "140818.163000", "140818.165000", "140818.168000", "140818.171000", "140818.173000", "140818.176000", "140818.179000", "140818.181000", "140818.184000", "140818.186000"],
