{
  "AcquisitionMatrixPE": 96,
  "AcquisitionNumber": 1,
  "AcquisitionTime": "13:10:54.180000",
  "BandwidthPerPixelPhaseEncode": 20.425,
  "BaseResolution": 96,
  "BodyPartExamined": "BRAIN",
  "CoilCombinationMethod": "Sum of Squares",
  "ConsistencyInfo": "N4_VE11C_LATEST_20160120",
  "ConversionSoftware": "dcm2niix",
  "ConversionSoftwareVersion": "v1.0.20211006",
  "DerivedVendorReportedEchoSpacing": 0.000509996,
  "DeviceSerialNumber": "166054",
  "DwellTime": 2.3e-06,
  "EchoTime": 0.03,
  "EchoTrainLength": 96,
  "EffectiveEchoSpacing": 0.000509996,
  "FlipAngle": 75,
  "HeudiconvVersion": "0.11.3+d20220512",
  "ImageComments": "Unaliased MB2/PE2",
  "ImageOrientationPatientDICOM": [0.998905, 0.0442263, -0.015288, -0.0467577, 0.930469, -0.363376],
  "ImageOrientationText": "Tra>Cor(-21.3)>Sag(0.1)",
  "ImageType": [
    "ORIGINAL",
    "PRIMARY",
    "M",
    "MB",
    "ND",
    "MOSAIC"
],
  "ImagingFrequency": 123.26,
  "InPlanePhaseEncodingDirectionDICOM": "COL",
  "InstitutionAddress": "Street StreetNo,City,District,IL,ZIP",
  "InstitutionName": "Weizmann Institute",
  "InstitutionalDepartmentName": "Department",
  "MRAcquisitionType": "2D",
  "MagneticFieldStrength": 3,
  "Manufacturer": "Siemens",
  "ManufacturersModelName": "Prisma",
  "MatrixCoilMode": "SENSE",
  "Modality": "MR",
  "MultibandAccelerationFactor": 2,
  "PartialFourier": 1,
  "PatientPosition": "HFS",
  "PercentPhaseFOV": 100,
  "PercentSampling": 100,
  "PhaseEncodingDirection": "j-",
  "PhaseEncodingSteps": 96,
  "PhaseResolution": 1,
  "PixelBandwidth": 2265,
  "ProcedureStepDescription": "Weizmann^Sobel",
  "ProtocolName": "EPI_PSAP_iso2.5",
  "PulseSequenceDetails": "%CustomerSeq%\\cmrr_mbep2d_bold",
  "ReceiveCoilActiveElements": "HEA;HEP",
  "ReceiveCoilName": "Head_32",
  "ReconMatrixPE": 96,
  "RepetitionTime": 2,
  "SAR": 0.104245,
  "ScanOptions": "FS",
  "ScanningSequence": "EP",
  "SequenceName": "epfid2d1_96",
  "SequenceVariant": "SK\\SS",
  "SeriesDescription": "EPI_PSAP_iso2.5",
  "SeriesNumber": 6,
  "ShimSetting": [5902, -4044, -1930, 391, 78, -22, 119, 22],
  "SliceThickness": 2.5,
  "SliceTiming": [0, 0.9175, 1.8375, 0.7775, 1.695, 0.635, 1.555, 0.495, 1.4125, 0.3525, 1.2725, 0.21, 1.13, 0.07, 0.99, 1.9075, 0.8475, 1.7675, 0.705, 1.625, 0.565, 1.485, 0.4225, 1.3425, 0.2825, 1.2, 0.14, 1.06, 0, 0.9175, 1.8375, 0.7775, 1.695, 0.635, 1.555, 0.495, 1.4125, 0.3525, 1.2725, 0.21, 1.13, 0.07, 0.99, 1.9075, 0.8475, 1.7675, 0.705, 1.625, 0.565, 1.485, 0.4225, 1.3425, 0.2825, 1.2, 0.14, 1.06],
  "SoftwareVersions": "syngo MR E11",
  "SpacingBetweenSlices": 2.5,
  "StationName": "AWP166054",
  "TaskName": "PSAP",
  "TotalReadoutTime": 0.0484496,
  "TxRefAmp": 239.7,
  "VendorReportedEchoSpacing": 0.00051,
  "WipMemBlock": "1da7c9a9-619d-4e5e-9483-c94847cfb822||Sequence: R016 ve11c/master r/e634e98; Dec 19 2017 11:00:25 by eja",
  "dcmmeta_affine": [
    [-2.4972612857818604, -0.11689424514770508, 0.004614411853253841, 126.60655212402344],
    [-0.11056576669216156, 2.326171398162842, -0.9092313647270203, -65.01979064941406],
    [-0.03822000324726105, 0.9084394574165344, 2.3287930488586426, -95.9053726196289],
    [0.0, 0.0, 0.0, 1.0]
],
  "dcmmeta_reorient_transform": [
    [0.0, -1.0, 0.0, 95.0],
    [1.0, 0.0, 0.0, 0.0],
    [0.0, 0.0, 1.0, 0.0],
    [0.0, 0.0, 0.0, 1.0]
],
  "dcmmeta_shape": [96, 96, 56, 500],
  "dcmmeta_slice_dim": 2,
  "dcmmeta_version": 0.6,
  "global": {
    "const": {
      "AcquisitionMatrix": [96, 0, 0, 96],
      "AngioFlag": "N",
      "BitsAllocated": 16,
      "BitsStored": 16,
      "BodyPartExamined": "BRAIN",
      "Columns": 768,
      "EchoNumbers": 1,
      "EchoTime": 30.0,
      "EchoTrainLength": 96,
      "FlipAngle": 75.0,
      "HighBit": 15,
      "ImageOrientationPatient": [0.99890455545152, 0.04422630592415, -0.0152880006053, -0.046757697237, 0.93046856758534, -0.3633757868719],
      "ImagePositionPatient": [-915.30496190946, -974.71019136208, 308.47395823761],
      "ImageType": [
        "ORIGINAL",
        "PRIMARY",
        "M",
        "MB",
        "ND",
        "MOSAIC"
],
      "ImagedNucleus": "1H",
      "ImagingFrequency": 123.260214,
      "InPlanePhaseEncodingDirection": "COL",
      "MRAcquisitionType": "2D",
      "MagneticFieldStrength": 3.0,
      "Manufacturer": "SIEMENS",
      "ManufacturerModelName": "Prisma",
      "Modality": "MR",
      "NumberOfAverages": 1.0,
      "NumberOfPhaseEncodingSteps": 96,
      "PercentPhaseFieldOfView": 100.0,
      "PercentSampling": 100.0,
      "PerformedProcedureStepStartTime": "122454.003000",
      "PhotometricInterpretation": "MONOCHROME2",
      "PixelBandwidth": 2265.0,
      "PixelRepresentation": 0,
      "PixelSpacing": [2.5, 2.5],
      "ProtocolName": "EPI_PSAP_iso2.5",
      "RepetitionTime": 2000.0,
      "Rows": 768,
      "SAR": 0.10424455179862,
      "SamplesPerPixel": 1,
      "ScanOptions": "FS",
      "ScanningSequence": "EP",
      "SequenceName": "epfid2d1_96",
      "SequenceVariant": [
        "SK",
        "SS"
],
      "SeriesDescription": "EPI_PSAP_iso2.5",
      "SeriesNumber": 6,
      "SeriesTime": "131116.878000",
      "SliceLocation": -65.456606440353,
      "SliceThickness": 2.5,
      "SmallestImagePixelValue": 0,
      "SoftwareVersions": "syngo MR E11",
      "SpacingBetweenSlices": 2.4999999730483,
      "SpecificCharacterSet": "ISO_IR 100",
      "StudyID": "2",
      "StudyTime": "122453.929000",
      "TransmitCoilName": "Body",
      "VariableFlipAngleFlag": "N",
      "WindowCenterWidthExplanation": "Algo1",
      "dBdt": 0.0},
    "slices": {}
  },
  "time": {
    "samples": {
      "AcquisitionNumber": [1, 2, 3, 4, 5, 6, 7, 8, 9, 10, 11, 12, 13, 14, 15, 16, 17, 18, 19, 20, 21, 22, 23, 24, 25, 26, 27, 28, 29, 30, 31, 32, 33, 34, 35, 36, 37, 38, 39, 40, 41, 42, 43, 44, 45, 46, 47, 48, 49, 50, 51, 52, 53, 54, 55, 56, 57, 58, 59, 60, 61, 62, 63, 64, 65, 66, 67, 68, 69, 70, 71, 72, 73, 74, 75, 76, 77, 78, 79, 80, 81, 82, 83, 84, 85, 86, 87, 88, 89, 90, 91, 92, 93, 94, 95, 96, 97, 98, 99, 100, 101, 102, 103, 104, 105, 106, 107, 108, 109, 110, 111, 112, 113, 114, 115, 116, 117, 118, 119, 120, 121, 122, 123, 124, 125, 126, 127, 128, 129, 130, 131, 132, 133, 134, 135, 136, 137, 138, 139, 140, 141, 142, 143, 144, 145, 146, 147, 148, 149, 150, 151, 152, 153, 154, 155, 156, 157, 158, 159, 160, 161, 162, 163, 164, 165, 166, 167, 168, 169, 170, 171, 172, 173, 174, 175, 176, 177, 178, 179, 180, 181, 182, 183, 184, 185, 186, 187, 188, 189, 190, 191, 192, 193, 194, 195, 196, 197, 198, 199, 200, 201, 202, 203, 204, 205, 206, 207, 208, 209, 210, 211, 212, 213, 214, 215, 216, 217, 218, 219, 220, 221, 222, 223, 224, 225, 226, 227, 228, 229, 230, 231, 232, 233, 234, 235, 236, 237, 238, 239, 240, 241, 242, 243, 244, 245, 246, 247, 248, 249, 250, 251, 252, 253, 254, 255, 256, 257, 258, 259, 260, 261, 262, 263, 264, 265, 266, 267, 268, 269, 270, 271, 272, 273, 274, 275, 276, 277, 278, 279, 280, 281, 282, 283, 284, 285, 286, 287, 288, 289, 290, 291, 292, 293, 294, 295, 296, 297, 298, 299, 300, 301, 302, 303, 304, 305, 306, 307, 308, 309, 310, 311, 312, 313, 314, 315, 316, 317, 318, 319, 320, 321, 322, 323, 324, 325, 326, 327, 328, 329, 330, 331, 332, 333, 334, 335, 336, 337, 338, 339, 340, 341, 342, 343, 344, 345, 346, 347, 348, 349, 350, 351, 352, 353, 354, 355, 356, 357, 358, 359, 360, 361, 362, 363, 364, 365, 366, 367, 368, 369, 370, 371, 372, 373, 374, 375, 376, 377, 378, 379, 380, 381, 382, 383, 384, 385, 386, 387, 388, 389, 390, 391, 392, 393, 394, 395, 396, 397, 398, 399, 400, 401, 402, 403, 404, 405, 406, 407, 408, 409, 410, 411, 412, 413, 414, 415, 416, 417, 418, 419, 420, 421, 422, 423, 424, 425, 426, 427, 428, 429, 430, 431, 432, 433, 434, 435, 436, 437, 438, 439, 440, 441, 442, 443, 444, 445, 446, 447, 448, 449, 450, 451, 452, 453, 454, 455, 456, 457, 458, 459, 460, 461, 462, 463, 464, 465, 466, 467, 468, 469, 470, 471, 472, 473, 474, 475, 476, 477, 478, 479, 480, 481, 482, 483, 484, 485, 486, 487, 488, 489, 490, 491, 492, 493, 494, 495, 496, 497, 498, 499, 500],
      "AcquisitionTime": ["131054.180000", "131056.180000", "131058.180000", "131100.180000", "131102.180000", "131104.180000", "131106.180000", "131108.180000", "131110.180000", "131112.180000", "131114.180000", "131116.180000", "131118.180000", "131120.180000", "131122.180000", "131124.180000", "131126.180000", "131128.180000", "131130.180000", "131132.180000", "131134.180000", "131136.180000", "131138.180000", "131140.180000", "131142.180000", "131144.180000", "131146.180000", "131148.180000", "131150.180000", "131152.180000", "131154.180000", "131156.180000", "131158.180000", "131200.180000", "131202.180000", "131204.180000", "131206.180000", "131208.180000", "131210.180000", "131212.180000", "131214.180000", "131216.180000", "131218.180000", "131220.180000", "131222.180000", "131224.180000", "131226.180000", "131228.180000", "131230.180000", "131232.180000", "131234.180000", "131236.180000", "131238.180000", "131240.180000", "131242.180000", "131244.180000", "131246.180000", "131248.180000", "131250.180000", "131252.180000", "131254.180000", "131256.180000", "131258.180000", "131300.180000", "131302.180000", "131304.180000", "131306.180000", "131308.180000", "131310.180000", "131312.180000", "131314.180000", "131316.180000", "131318.180000", "131320.180000", "131322.180000", "131324.180000", "131326.180000", "131328.180000", "131330.180000", "131332.180000", "131334.180000", "131336.180000", "131338.180000", "131340.180000", "131342.180000", "131344.180000", "131346.180000", "131348.180000", "131350.180000", "131352.180000", "131354.180000", "131356.180000", "131358.180000", "131400.180000", "131402.180000", "131404.180000", "131406.180000", "131408.180000", "131410.180000", "131412.180000", "131414.180000", "131416.180000", "131418.180000", "131420.180000", "131422.180000", "131424.180000", "131426.180000", "131428.180000", "131430.180000", "131432.180000", "131434.180000", "131436.180000", "131438.180000", "131440.180000", "131442.180000", "131444.180000", "131446.180000", "131448.180000", "131450.180000", "131452.180000", "131454.180000", "131456.180000", "131458.180000", "131500.180000", "131502.180000", "131504.180000", "131506.180000", "131508.180000", "131510.180000", "131512.180000", "131514.180000", "131516.180000", "131518.180000", "131520.180000", "131522.180000", "131524.180000", "131526.180000", "131528.180000", "131530.180000", "131532.180000", "131534.180000", "131536.180000", "131538.180000", "131540.180000", "131542.180000", "131544.180000", "131546.180000", "131548.180000", "131550.180000", "131552.180000", "131554.180000", "131556.180000", "131558.180000", "131600.180000", "131602.180000", "131604.180000", "131606.180000", "131608.180000", "131610.180000", "131612.180000", "131614.180000", "131616.180000", "131618.180000", "131620.180000", "131622.180000", "131624.180000", "131626.180000", "131628.180000", "131630.180000", "131632.180000", "131634.180000", "131636.180000", "131638.180000", "131640.180000", "131642.180000", "131644.180000", "131646.180000", "131648.180000", "131650.180000", "131652.180000", "131654.180000", "131656.180000", "131658.180000", "131700.180000", "131702.180000", "131704.180000", "131706.180000", "131708.180000", "131710.180000", "131712.180000", "131714.180000", "131716.180000", "131718.180000", "131720.180000", "131722.180000", "131724.180000", "131726.180000", "131728.180000", "131730.180000", "131732.180000", "131734.180000", "131736.180000", "131738.180000", "131740.180000", "131742.180000", "131744.180000", "131746.180000", "131748.180000", "131750.180000", "131752.180000", "131754.180000", "131756.180000", "131758.180000", "131800.180000", "131802.180000", "131804.180000", "131806.180000", "131808.180000", "131810.180000", "131812.180000", "131814.180000", "131816.180000", "131818.180000", "131820.180000", "131822.180000", "131824.180000", "131826.180000", "131828.180000", "131830.180000", "131832.180000", "131834.180000", "131836.180000", "131838.180000", "131840.180000", "131842.180000", "131844.180000", "131846.180000", "131848.180000", "131850.180000", "131852.180000", "131854.180000", "131856.180000", "131858.180000", "131900.180000", "131902.180000", "131904.180000", "131906.180000", "131908.180000", "131910.180000", "131912.180000", "131914.180000", "131916.180000", "131918.180000", "131920.180000", "131922.180000", "131924.180000", "131926.180000", "131928.180000", "131930.180000", "131932.180000", "131934.180000", "131936.180000", "131938.180000", "131940.180000", "131942.180000", "131944.180000", "131946.180000", "131948.180000", "131950.180000", "131952.180000", "131954.180000", "131956.180000", "131958.180000", "132000.180000", "132002.180000", "132004.180000", "132006.180000", "132008.180000", "132010.180000", "132012.180000", "132014.180000", "132016.180000", "132018.180000", "132020.180000", "132022.180000", "132024.180000", "132026.180000", "132028.180000", "132030.180000", "132032.180000", "132034.180000", "132036.180000", "132038.180000", "132040.180000", "132042.180000", "132044.180000", "132046.180000", "132048.180000", "132050.180000", "132052.180000", "132054.180000", "132056.180000", "132058.180000", "132100.180000", "132102.180000", "132104.180000", "132106.180000", "132108.180000", "132110.180000", "132112.180000", "132114.180000", "132116.180000", "132118.180000", "132120.180000", "132122.180000", "132124.180000", "132126.180000", "132128.180000", "132130.180000", "132132.180000", "132134.180000", "132136.180000", "132138.180000", "132140.180000", "132142.180000", "132144.180000", "132146.180000", "132148.180000", "132150.180000", "132152.180000", "132154.180000", "132156.180000", "132158.180000", "132200.180000", "132202.180000", "132204.180000", "132206.180000", "132208.180000", "132210.180000", "132212.180000", "132214.180000", "132216.180000", "132218.180000", "132220.180000", "132222.180000", "132224.180000", "132226.180000", "132228.180000", "132230.180000", "132232.180000", "132234.180000", "132236.180000", "132238.180000", "132240.180000", "132242.180000", "132244.180000", "132246.180000", "132248.180000", "132250.180000", "132252.180000", "132254.180000", "132256.180000", "132258.180000", "132300.180000", "132302.180000", "132304.180000", "132306.180000", "132308.180000", "132310.180000", "132312.180000", "132314.180000", "132316.180000", "132318.180000", "132320.180000", "132322.180000", "132324.180000", "132326.180000", "132328.180000", "132330.180000", "132332.180000", "132334.180000", "132336.180000", "132338.180000", "132340.180000", "132342.180000", "132344.180000", "132346.180000", "132348.180000", "132350.180000", "132352.180000", "132354.180000", "132356.180000", "132358.180000", "132400.180000", "132402.180000", "132404.180000", "132406.180000", "132408.180000", "132410.180000", "132412.180000", "132414.180000", "132416.180000", "132418.180000", "132420.180000", "132422.180000", "132424.180000", "132426.180000", "132428.180000", "132430.180000", "132432.180000", "132434.180000", "132436.180000", "132438.180000", "132440.180000", "132442.180000", "132444.180000", "132446.180000", "132448.180000", "132450.180000", "132452.180000", "132454.180000", "132456.180000", "132458.180000", "132500.180000", "132502.180000", "132504.180000", "132506.180000", "132508.180000", "132510.180000", "132512.180000", "132514.180000", "132516.180000", "132518.180000", "132520.180000", "132522.180000", "132524.180000", "132526.180000", "132528.180000", "132530.180000", "132532.180000", "132534.180000", "132536.180000", "132538.180000", "132540.180000", "132542.180000", "132544.180000", "132546.180000", "132548.180000", "132550.180000", "132552.180000", "132554.180000", "132556.180000", "132558.180000", "132600.180000", "132602.180000", "132604.180000", "132606.180000", "132608.180000", "132610.180000", "132612.180000", "132614.180000", "132616.180000", "132618.180000", "132620.180000", "132622.180000", "132624.180000", "132626.180000", "132628.180000", "132630.180000", "132632.180000", "132634.180000", "132636.180000", "132638.180000", "132640.180000", "132642.180000", "132644.180000", "132646.180000", "132648.180000", "132650.180000", "132652.180000", "132654.180000", "132656.180000", "132658.180000", "132700.180000", "132702.180000", "132704.180000", "132706.180000", "132708.180000", "132710.180000", "132712.180000", "132714.180000", "132716.180000", "132718.180000", "132720.180000", "132722.180000", "132724.180000", "132726.180000", "132728.180000", "132730.180000", "132732.180000"],
      "ContentTime": ["131116.880000", "131116.884000", "131116.886000", "131116.889000", "131116.891000", "131116.894000", "131116.902000", "131116.905000", "131116.908000", "131116.910000", "131116.913000", "131156.847000", "131156.849000", "131156.852000", "131156.855000", "131156.857000", "131156.860000", "131156.862000", "131156.865000", "131156.871000", "131156.874000", "131156.877000", "131156.879000", "131156.882000", "131156.884000", "131156.887000", "131156.889000", "131156.892000", "131156.894000", "131156.897000", "131156.899000", "131236.847000", "131236.850000", "131236.853000", "131236.855000", "131236.858000", "131236.860000", "131236.863000", "131236.869000", "131236.872000", "131236.874000", "131236.877000", "131236.879000", "131236.882000", "131236.884000", "131236.887000", "131236.890000", "131236.892000", "131236.895000", "131236.897000", "131236.900000", "131316.847000", "131316.850000", "131316.853000", "131316.855000", "131316.858000", "131316.861000", "131316.863000", "131316.866000", "131316.868000", "131316.871000", "131316.873000", "131316.876000", "131316.878000", "131316.881000", "131316.883000", "131316.886000", "131316.888000", "131316.891000", "131316.894000", "131316.896000", "131356.847000", "131356.850000", "131356.853000", "131356.855000", "131356.865000", "131356.867000", "131356.870000", "131356.872000", "131356.875000", "131356.877000", "131356.880000", "131356.883000", "131356.885000", "131356.888000", "131356.890000", "131356.893000", "131356.895000", "131356.898000", "131356.900000", "131356.903000", "131436.848000", "131436.850000", "131436.853000", "131436.855000", "131436.858000", "131436.861000", "131436.863000", "131436.866000", "131436.868000", "131436.871000", "131436.873000", "131436.876000", "131436.878000", "131436.881000", "131436.883000", "131436.886000", "131436.888000", "131436.895000", "131436.898000", "131436.900000", "131516.847000", "131516.850000", "131516.853000", "131516.855000", "131516.858000", "131516.860000", "131516.863000", "131516.866000", "131516.868000", "131516.871000", "131516.873000", "131516.876000", "131516.878000", "131516.881000", "131516.883000", "131516.886000", "131516.888000", "131516.891000", "131516.893000", "131516.896000", "131556.848000", "131556.851000", "131556.853000", "131556.856000", "131556.858000", "131556.861000", "131556.863000", "131556.866000", "131556.868000", "131556.871000", "131556.874000", "131556.876000", "131556.879000", "131556.881000", "131556.884000", "131556.886000", "131556.889000", "131556.891000", "131556.894000", "131556.896000", "131636.847000", "131636.849000", "131636.852000", "131636.854000", "131636.857000", "131636.860000", "131636.862000", "131636.865000", "131636.867000", "131636.870000", "131636.872000", "131636.875000", "131636.877000", "131636.880000", "131636.882000", "131636.885000", "131636.887000", "131636.890000", "131636.892000", "131636.895000", "131716.848000", "131716.850000", "131716.853000", "131716.856000", "131716.858000", "131716.861000", "131716.863000", "131716.866000", "131716.868000", "131716.871000", "131716.873000", "131716.876000", "131716.878000", "131716.881000", "131716.884000", "131716.886000", "131716.889000", "131716.891000", "131716.894000", "131716.896000", "131756.847000", "131756.850000", "131756.853000", "131756.856000", "131756.858000", "131756.861000", "131756.863000", "131756.866000", "131756.868000", "131756.871000", "131756.873000", "131756.876000", "131756.878000", "131756.881000", "131756.884000", "131756.886000", "131756.889000", "131756.891000", "131756.894000", "131756.896000", "131836.847000", "131836.850000", "131836.853000", "131836.855000", "131836.858000", "131836.861000", "131836.863000", "131836.866000", "131836.868000", "131836.871000", "131836.873000", "131836.876000", "131836.878000", "131836.881000", "131836.884000", "131836.886000", "131836.889000", "131836.891000", "131836.894000", "131836.896000", "131916.847000", "131916.850000", "131916.864000", "131916.866000", "131916.869000", "131916.871000", "131916.874000", "131916.876000", "131916.879000", "131916.881000", "131916.884000", "131916.887000", "131916.889000", "131916.892000", "131916.894000", "131916.897000", "131916.899000", "131916.902000", "131916.904000", "131916.907000", "131956.848000", "131956.850000", "131956.853000", "131956.855000", "131956.858000", "131956.861000", "131956.863000", "131956.866000", "131956.868000", "131956.871000", "131956.873000", "131956.876000", "131956.879000", "131956.881000", "131956.884000", "131956.886000", "131956.889000", "131956.891000", "131956.894000", "131956.896000", "132036.848000", "132036.850000", "132036.853000", "132036.855000", "132036.858000", "132036.861000", "132036.863000", "132036.866000", "132036.868000", "132036.871000", "132036.873000", "132036.876000", "132036.878000", "132036.881000", "132036.883000", "132036.886000", "132036.889000", "132036.891000", "132036.894000", "132036.896000", "132116.847000", "132116.850000", "132116.852000", "132116.855000", "132116.858000", "132116.860000", "132116.863000", "132116.865000", "132116.868000", "132116.870000", "132116.873000", "132116.875000", "132116.878000", "132116.881000", "132116.883000", "132116.886000", "132116.888000", "132116.891000", "132116.893000", "132116.896000", "132156.848000", "132156.851000", "132156.853000", "132156.856000", "132156.858000", "132156.861000", "132156.863000", "132156.866000", "132156.868000", "132156.871000", "132156.873000", "132156.876000", "132156.878000", "132156.881000", "132156.884000", "132156.886000", "132156.889000", "132156.891000", "132156.894000", "132156.896000", "132236.848000", "132236.850000", "132236.853000", "132236.856000", "132236.858000", "132236.861000", "132236.863000", "132236.866000", "132236.868000", "132236.871000", "132236.873000", "132236.876000", "132236.878000", "132236.881000", "132236.884000", "132236.886000", "132236.889000", "132236.891000", "132236.894000", "132236.896000", "132316.847000", "132316.850000", "132316.853000", "132316.855000", "132316.858000", "132316.860000", "132316.863000", "132316.866000", "132316.868000", "132316.871000", "132316.873000", "132316.876000", "132316.879000", "132316.881000", "132316.884000", "132316.886000", "132316.889000", "132316.891000", "132316.894000", "132316.896000", "132356.847000", "132356.850000", "132356.853000", "132356.855000", "132356.858000", "132356.860000", "132356.863000", "132356.866000", "132356.868000", "132356.871000", "132356.873000", "132356.876000", "132356.878000", "132356.881000", "132356.883000", "132356.886000", "132356.888000", "132356.891000", "132356.893000", "132356.896000", "132436.848000", "132436.851000", "132436.853000", "132436.856000", "132436.858000", "132436.861000", "132436.863000", "132436.866000", "132436.869000", "132436.871000", "132436.874000", "132436.876000", "132436.879000", "132436.881000", "132436.884000", "132436.886000", "132436.889000", "132436.891000", "132436.894000", "132436.896000", "132516.847000", "132516.850000", "132516.853000", "132516.855000", "132516.858000", "132516.860000", "132516.863000", "132516.866000", "132516.868000", "132516.871000", "132516.873000", "132516.876000", "132516.878000", "132516.881000", "132516.884000", "132516.900000", "132516.903000", "132516.905000", "132516.908000", "132516.910000", "132556.847000", "132556.850000", "132556.853000", "132556.855000", "132556.858000", "132556.860000", "132556.863000", "132556.865000", "132556.868000", "132556.871000", "132556.873000", "132556.876000", "132556.878000", "132556.881000", "132556.883000", "132556.886000", "132556.889000", "132556.891000", "132556.894000", "132556.896000", "132636.848000", "132636.851000", "132636.853000", "132636.856000", "132636.858000", "132636.861000", "132636.863000", "132636.866000", "132636.868000", "132636.871000", "132636.874000", "132636.876000", "132636.879000", "132636.881000", "132636.884000", "132636.886000", "132636.889000", "132636.891000", "132636.894000", "132636.896000", "132716.848000", "132716.850000", "132716.853000", "132716.856000", "132716.858000", "132716.861000", "132716.863000", "132716.866000", "132716.868000", "132716.871000", "132716.873000", "132716.876000", "132716.879000", "132716.881000", "132716.884000", "132716.886000", "132716.889000", "132716.891000", "132716.894000", "132716.896000", "132735.235000", "132735.239000", "132735.241000", "132735.244000", "132735.246000", "132735.249000", "132735.252000", "132735.254000", "132735.257000"],
