{
  "AcquisitionMatrixPE": 96,
  "AcquisitionNumber": 1,
  "AcquisitionTime": "12:41:12.362500",
  "BandwidthPerPixelPhaseEncode": 20.425,
  "BaseResolution": 96,
  "BodyPartExamined": "BRAIN",
  "CoilCombinationMethod": "Sum of Squares",
  "ConsistencyInfo": "N4_VE11C_LATEST_20160120",
  "ConversionSoftware": "dcm2niix",
  "ConversionSoftwareVersion": "v1.0.20211006",
  "DerivedVendorReportedEchoSpacing": 0.000509996,
  "DeviceSerialNumber": "166054",
  "DwellTime": 2.3e-06,
  "EchoTime": 0.03,
  "EchoTrainLength": 96,
  "EffectiveEchoSpacing": 0.000509996,
  "FlipAngle": 75,
  "HeudiconvVersion": "0.11.3+d20220512",
  "ImageComments": "Unaliased MB2/PE2",
  "ImageOrientationPatientDICOM": [0.99945, -0.00431328, -0.0328844, -0.0034887, 0.972334, -0.233568],
  "ImageOrientationText": "Tra>Cor(-13.5)>Sag(-1.9)",
  "ImageType": [
    "ORIGINAL",
    "PRIMARY",
    "M",
    "MB",
    "ND",
    "MOSAIC"
],
  "ImagingFrequency": 123.26,
  "InPlanePhaseEncodingDirectionDICOM": "COL",
  "InstitutionAddress": "Street StreetNo,City,District,IL,ZIP",
  "InstitutionName": "Weizmann Institute",
  "InstitutionalDepartmentName": "Department",
  "MRAcquisitionType": "2D",
  "MagneticFieldStrength": 3,
  "Manufacturer": "Siemens",
  "ManufacturersModelName": "Prisma",
  "MatrixCoilMode": "SENSE",
  "Modality": "MR",
  "MultibandAccelerationFactor": 2,
  "PartialFourier": 1,
  "PatientPosition": "HFS",
  "PercentPhaseFOV": 100,
  "PercentSampling": 100,
  "PhaseEncodingDirection": "j-",
  "PhaseEncodingSteps": 96,
  "PhaseResolution": 1,
  "PixelBandwidth": 2265,
  "ProcedureStepDescription": "Weizmann^Sobel",
  "ProtocolName": "EPI_PSAP_iso2.5",
  "PulseSequenceDetails": "%CustomerSeq%\\cmrr_mbep2d_bold",
  "ReceiveCoilActiveElements": "HEA;HEP",
  "ReceiveCoilName": "Head_32",
  "ReconMatrixPE": 96,
  "RepetitionTime": 2,
  "SAR": 0.157827,
  "ScanOptions": "FS",
  "ScanningSequence": "EP",
  "SequenceName": "epfid2d1_96",
  "SequenceVariant": "SK\\SS",
  "SeriesDescription": "EPI_PSAP_iso2.5",
  "SeriesNumber": 6,
  "ShimSetting": [5917, -4079, -1768, 472, 107, -88, 81, 56],
  "SliceThickness": 2.5,
  "SliceTiming": [0, 0.9175, 1.8375, 0.7775, 1.695, 0.635, 1.555, 0.495, 1.4125, 0.3525, 1.2725, 0.21, 1.13, 0.07, 0.99, 1.9075, 0.8475, 1.7675, 0.705, 1.625, 0.565, 1.485, 0.4225, 1.3425, 0.2825, 1.2, 0.14, 1.06, 0, 0.9175, 1.8375, 0.7775, 1.695, 0.635, 1.555, 0.495, 1.4125, 0.3525, 1.2725, 0.21, 1.13, 0.07, 0.99, 1.9075, 0.8475, 1.7675, 0.705, 1.625, 0.565, 1.485, 0.4225, 1.3425, 0.2825, 1.2, 0.14, 1.06],
  "SoftwareVersions": "syngo MR E11",
  "SpacingBetweenSlices": 2.5,
  "StationName": "AWP166054",
  "TaskName": "PSAP",
  "TotalReadoutTime": 0.0484496,
  "TxRefAmp": 277.6,
  "VendorReportedEchoSpacing": 0.00051,
  "WipMemBlock": "1cfcb6e7-afb5-493a-8fde-334988288d2b||Sequence: R016 ve11c/master r/e634e98; Dec 19 2017 11:00:25 by eja",
  "dcmmeta_affine": [
    [-2.498624563217163, -0.008721742779016495, -0.08245506882667542, 121.50726318359375],
    [0.010783200152218342, 2.430835723876953, -0.583885133266449, -85.72723388671875],
    [-0.08221089094877243, 0.5839195847511292, 2.4294605255126953, -46.5703125],
    [0.0, 0.0, 0.0, 1.0]
],
  "dcmmeta_reorient_transform": [
    [0.0, -1.0, 0.0, 95.0],
    [1.0, 0.0, 0.0, 0.0],
    [0.0, 0.0, 1.0, 0.0],
    [0.0, 0.0, 0.0, 1.0]
],
  "dcmmeta_shape": [96, 96, 56, 491],
  "dcmmeta_slice_dim": 2,
  "dcmmeta_version": 0.6,
  "global": {
    "const": {
      "AcquisitionMatrix": [96, 0, 0, 96],
      "AngioFlag": "N",
      "BitsAllocated": 16,
      "BitsStored": 16,
      "BodyPartExamined": "BRAIN",
      "Columns": 768,
      "EchoNumbers": 1,
      "EchoTime": 30.0,
      "EchoTrainLength": 96,
      "FlipAngle": 75.0,
      "HighBit": 15,
      "ImageOrientationPatient": [0.99944985604204, -0.0043132798843, -0.0328843560707, -0.0034886972294, 0.97233425190508, -0.2335678307555],
      "ImagePositionPatient": [-957.28607269822, -958.33976402986, 232.72188331924],
      "ImageType": [
        "ORIGINAL",
        "PRIMARY",
        "M",
        "MB",
        "ND",
        "MOSAIC"
],
      "ImagedNucleus": "1H",
      "ImagingFrequency": 123.260088,
      "InPlanePhaseEncodingDirection": "COL",
      "MRAcquisitionType": "2D",
      "MagneticFieldStrength": 3.0,
      "Manufacturer": "SIEMENS",
      "ManufacturerModelName": "Prisma",
      "Modality": "MR",
      "NumberOfAverages": 1.0,
      "NumberOfPhaseEncodingSteps": 96,
      "PercentPhaseFieldOfView": 100.0,
      "PercentSampling": 100.0,
      "PerformedProcedureStepStartTime": "121210.132000",
      "PhotometricInterpretation": "MONOCHROME2",
      "PixelBandwidth": 2265.0,
      "PixelRepresentation": 0,
      "PixelSpacing": [2.5, 2.5],
      "ProtocolName": "EPI_PSAP_iso2.5",
      "RepetitionTime": 2000.0,
      "Rows": 768,
      "SAR": 0.15782685584606,
      "SamplesPerPixel": 1,
      "ScanOptions": "FS",
      "ScanningSequence": "EP",
      "SequenceName": "epfid2d1_96",
      "SequenceVariant": [
        "SK",
        "SS"
],
      "SeriesDescription": "EPI_PSAP_iso2.5",
      "SeriesNumber": 6,
      "SeriesTime": "124156.025000",
      "SliceLocation": -29.241910484641,
      "SliceThickness": 2.5,
      "SmallestImagePixelValue": 0,
      "SoftwareVersions": "syngo MR E11",
      "SpacingBetweenSlices": 2.4999999355703,
      "SpecificCharacterSet": "ISO_IR 100",
      "StudyID": "3",
      "StudyTime": "121210.066000",
      "TransmitCoilName": "Body",
      "VariableFlipAngleFlag": "N",
      "WindowCenterWidthExplanation": "Algo1",
      "dBdt": 0.0},
    "slices": {}
  },
  "time": {
    "samples": {
      "AcquisitionNumber": [1, 2, 3, 4, 5, 6, 7, 8, 9, 10, 11, 12, 13, 14, 15, 16, 17, 18, 19, 20, 21, 22, 23, 24, 25, 26, 27, 28, 29, 30, 31, 32, 33, 34, 35, 36, 37, 38, 39, 40, 41, 42, 43, 44, 45, 46, 47, 48, 49, 50, 51, 52, 53, 54, 55, 56, 57, 58, 59, 60, 61, 62, 63, 64, 65, 66, 67, 68, 69, 70, 71, 72, 73, 74, 75, 76, 77, 78, 79, 80, 81, 82, 83, 84, 85, 86, 87, 88, 89, 90, 91, 92, 93, 94, 95, 96, 97, 98, 99, 100, 101, 102, 103, 104, 105, 106, 107, 108, 109, 110, 111, 112, 113, 114, 115, 116, 117, 118, 119, 120, 121, 122, 123, 124, 125, 126, 127, 128, 129, 130, 131, 132, 133, 134, 135, 136, 137, 138, 139, 140, 141, 142, 143, 144, 145, 146, 147, 148, 149, 150, 151, 152, 153, 154, 155, 156, 157, 158, 159, 160, 161, 162, 163, 164, 165, 166, 167, 168, 169, 170, 171, 172, 173, 174, 175, 176, 177, 178, 179, 180, 181, 182, 183, 184, 185, 186, 187, 188, 189, 190, 191, 192, 193, 194, 195, 196, 197, 198, 199, 200, 201, 202, 203, 204, 205, 206, 207, 208, 209, 210, 211, 212, 213, 214, 215, 216, 217, 218, 219, 220, 221, 222, 223, 224, 225, 226, 227, 228, 229, 230, 231, 232, 233, 234, 235, 236, 237, 238, 239, 240, 241, 242, 243, 244, 245, 246, 247, 248, 249, 250, 251, 252, 253, 254, 255, 256, 257, 258, 259, 260, 261, 262, 263, 264, 265, 266, 267, 268, 269, 270, 271, 272, 273, 274, 275, 276, 277, 278, 279, 280, 281, 282, 283, 284, 285, 286, 287, 288, 289, 290, 291, 292, 293, 294, 295, 296, 297, 298, 299, 300, 301, 302, 303, 304, 305, 306, 307, 308, 309, 310, 311, 312, 313, 314, 315, 316, 317, 318, 319, 320, 321, 322, 323, 324, 325, 326, 327, 328, 329, 330, 331, 332, 333, 334, 335, 336, 337, 338, 339, 340, 341, 342, 343, 344, 345, 346, 347, 348, 349, 350, 351, 352, 353, 354, 355, 356, 357, 358, 359, 360, 361, 362, 363, 364, 365, 366, 367, 368, 369, 370, 371, 372, 373, 374, 375, 376, 377, 378, 379, 380, 381, 382, 383, 384, 385, 386, 387, 388, 389, 390, 391, 392, 393, 394, 395, 396, 397, 398, 399, 400, 401, 402, 403, 404, 405, 406, 407, 408, 409, 410, 411, 412, 413, 414, 415, 416, 417, 418, 419, 420, 421, 422, 423, 424, 425, 426, 427, 428, 429, 430, 431, 432, 433, 434, 435, 436, 437, 438, 439, 440, 441, 442, 443, 444, 445, 446, 447, 448, 449, 450, 451, 452, 453, 454, 455, 456, 457, 458, 459, 460, 461, 462, 463, 464, 465, 466, 467, 468, 469, 470, 471, 472, 473, 474, 475, 476, 477, 478, 479, 480, 481, 482, 483, 484, 485, 486, 487, 488, 489, 490, 491],
      "AcquisitionTime": ["124112.362500", "124114.362500", "124116.362500", "124118.362500", "124120.362500", "124122.362500", "124124.362500", "124126.362500", "124128.362500", "124130.362500", "124132.362500", "124134.362500", "124136.362500", "124138.362500", "124140.362500", "124142.362500", "124144.362500", "124146.362500", "124148.362500", "124150.362500", "124152.362500", "124154.362500", "124156.362500", "124158.362500", "124200.362500", "124202.362500", "124204.362500", "124206.362500", "124208.362500", "124210.362500", "124212.362500", "124214.362500", "124216.362500", "124218.362500", "124220.362500", "124222.362500", "124224.362500", "124226.362500", "124228.362500", "124230.362500", "124232.362500", "124234.362500", "124236.362500", "124238.362500", "124240.362500", "124242.362500", "124244.362500", "124246.362500", "124248.362500", "124250.362500", "124252.362500", "124254.362500", "124256.362500", "124258.362500", "124300.362500", "124302.362500", "124304.362500", "124306.362500", "124308.362500", "124310.362500", "124312.362500", "124314.362500", "124316.362500", "124318.362500", "124320.362500", "124322.362500", "124324.362500", "124326.362500", "124328.362500", "124330.362500", "124332.362500", "124334.362500", "124336.362500", "124338.362500", "124340.362500", "124342.362500", "124344.362500", "124346.362500", "124348.362500", "124350.362500", "124352.362500", "124354.362500", "124356.362500", "124358.362500", "124400.362500", "124402.362500", "124404.362500", "124406.362500", "124408.362500", "124410.362500", "124412.362500", "124414.362500", "124416.362500", "124418.362500", "124420.362500", "124422.362500", "124424.362500", "124426.362500", "124428.362500", "124430.362500", "124432.362500", "124434.362500", "124436.362500", "124438.362500", "124440.362500", "124442.362500", "124444.362500", "124446.362500", "124448.362500", "124450.362500", "124452.362500", "124454.362500", "124456.362500", "124458.362500", "124500.362500", "124502.362500", "124504.362500", "124506.362500", "124508.362500", "124510.362500", "124512.362500", "124514.362500", "124516.362500", "124518.362500", "124520.362500", "124522.362500", "124524.362500", "124526.362500", "124528.362500", "124530.362500", "124532.362500", "124534.362500", "124536.362500", "124538.362500", "124540.362500", "124542.362500", "124544.362500", "124546.362500", "124548.362500", "124550.362500", "124552.362500", "124554.362500", "124556.362500", "124558.362500", "124600.362500", "124602.362500", "124604.362500", "124606.362500", "124608.362500", "124610.362500", "124612.362500", "124614.362500", "124616.362500", "124618.362500", "124620.362500", "124622.362500", "124624.362500", "124626.362500", "124628.362500", "124630.362500", "124632.362500", "124634.362500", "124636.362500", "124638.362500", "124640.362500", "124642.362500", "124644.362500", "124646.362500", "124648.362500", "124650.362500", "124652.362500", "124654.362500", "124656.362500", "124658.362500", "124700.362500", "124702.362500", "124704.362500", "124706.362500", "124708.362500", "124710.362500", "124712.362500", "124714.362500", "124716.362500", "124718.362500", "124720.362500", "124722.362500", "124724.362500", "124726.362500", "124728.362500", "124730.362500", "124732.362500", "124734.362500", "124736.362500", "124738.362500", "124740.362500", "124742.362500", "124744.362500", "124746.362500", "124748.362500", "124750.362500", "124752.362500", "124754.362500", "124756.362500", "124758.362500", "124800.362500", "124802.362500", "124804.362500", "124806.362500", "124808.362500", "124810.362500", "124812.362500", "124814.362500", "124816.362500", "124818.362500", "124820.362500", "124822.362500", "124824.362500", "124826.362500", "124828.362500", "124830.362500", "124832.362500", "124834.362500", "124836.362500", "124838.362500", "124840.362500", "124842.362500", "124844.362500", "124846.362500", "124848.362500", "124850.362500", "124852.362500", "124854.362500", "124856.362500", "124858.362500", "124900.362500", "124902.362500", "124904.362500", "124906.362500", "124908.362500", "124910.362500", "124912.362500", "124914.362500", "124916.362500", "124918.362500", "124920.362500", "124922.362500", "124924.362500", "124926.362500", "124928.362500", "124930.362500", "124932.362500", "124934.362500", "124936.362500", "124938.362500", "124940.362500", "124942.362500", "124944.362500", "124946.362500", "124948.362500", "124950.362500", "124952.362500", "124954.362500", "124956.362500", "124958.362500", "125000.362500", "125002.362500", "125004.362500", "125006.362500", "125008.362500", "125010.362500", "125012.362500", "125014.362500", "125016.362500", "125018.362500", "125020.362500", "125022.362500", "125024.362500", "125026.362500", "125028.362500", "125030.362500", "125032.362500", "125034.362500", "125036.362500", "125038.362500", "125040.362500", "125042.362500", "125044.362500", "125046.362500", "125048.362500", "125050.362500", "125052.362500", "125054.362500", "125056.362500", "125058.362500", "125100.362500", "125102.362500", "125104.362500", "125106.362500", "125108.362500", "125110.362500", "125112.362500", "125114.362500", "125116.362500", "125118.362500", "125120.362500", "125122.362500", "125124.362500", "125126.362500", "125128.362500", "125130.362500", "125132.362500", "125134.362500", "125136.362500", "125138.362500", "125140.362500", "125142.362500", "125144.362500", "125146.362500", "125148.362500", "125150.362500", "125152.362500", "125154.362500", "125156.362500", "125158.362500", "125200.362500", "125202.362500", "125204.362500", "125206.362500", "125208.362500", "125210.362500", "125212.362500", "125214.362500", "125216.362500", "125218.362500", "125220.362500", "125222.362500", "125224.362500", "125226.362500", "125228.362500", "125230.362500", "125232.362500", "125234.362500", "125236.362500", "125238.362500", "125240.362500", "125242.362500", "125244.362500", "125246.362500", "125248.362500", "125250.362500", "125252.362500", "125254.362500", "125256.362500", "125258.362500", "125300.362500", "125302.362500", "125304.362500", "125306.362500", "125308.362500", "125310.362500", "125312.362500", "125314.362500", "125316.362500", "125318.362500", "125320.362500", "125322.362500", "125324.362500", "125326.362500", "125328.362500", "125330.362500", "125332.362500", "125334.362500", "125336.362500", "125338.362500", "125340.362500", "125342.362500", "125344.362500", "125346.362500", "125348.362500", "125350.362500", "125352.362500", "125354.362500", "125356.362500", "125358.362500", "125400.362500", "125402.362500", "125404.362500", "125406.362500", "125408.362500", "125410.362500", "125412.362500", "125414.362500", "125416.362500", "125418.362500", "125420.362500", "125422.362500", "125424.362500", "125426.362500", "125428.362500", "125430.362500", "125432.362500", "125434.362500", "125436.362500", "125438.362500", "125440.362500", "125442.362500", "125444.362500", "125446.362500", "125448.362500", "125450.362500", "125452.362500", "125454.362500", "125456.362500", "125458.362500", "125500.362500", "125502.362500", "125504.362500", "125506.362500", "125508.362500", "125510.362500", "125512.362500", "125514.362500", "125516.362500", "125518.362500", "125520.362500", "125522.362500", "125524.362500", "125526.362500", "125528.362500", "125530.362500", "125532.362500", "125534.362500", "125536.362500", "125538.362500", "125540.362500", "125542.362500", "125544.362500", "125546.362500", "125548.362500", "125550.362500", "125552.362500", "125554.362500", "125556.362500", "125558.362500", "125600.362500", "125602.362500", "125604.362500", "125606.362500", "125608.362500", "125610.362500", "125612.362500", "125614.362500", "125616.362500", "125618.362500", "125620.362500", "125622.362500", "125624.362500", "125626.362500", "125628.362500", "125630.362500", "125632.362500", "125634.362500", "125636.362500", "125638.362500", "125640.362500", "125642.362500", "125644.362500", "125646.362500", "125648.362500", "125650.362500", "125652.362500", "125654.362500", "125656.362500", "125658.362500", "125700.362500", "125702.362500", "125704.362500", "125706.362500", "125708.362500", "125710.362500", "125712.362500", "125714.362500", "125716.362500", "125718.362500", "125720.362500", "125722.362500", "125724.362500", "125726.362500", "125728.362500", "125730.362500", "125732.362500"],
      "ContentTime": ["124156.027000", "124156.030000", "124156.033000", "124156.045000", "124156.048000", "124156.050000", "124156.053000", "124156.056000", "124156.063000", "124156.065000", "124156.068000", "124156.071000", "124156.073000", "124156.076000", "124156.079000", "124156.081000", "124156.084000", "124156.086000", "124156.089000", "124156.091000", "124156.094000", "124235.990000", "124235.993000", "124235.996000", "124235.998000", "124236.002000", "124236.005000", "124236.007000", "124236.010000", "124236.012000", "124236.015000", "124236.018000", "124236.020000", "124236.023000", "124236.025000", "124236.028000", "124236.030000", "124236.033000", "124236.036000", "124236.038000", "124236.041000", "124315.991000", "124315.993000", "124315.996000", "124315.998000", "124316.002000", "124316.019000", "124316.021000", "124316.024000", "124316.026000", "124316.029000", "124316.031000", "124316.034000", "124316.037000", "124316.039000", "124316.042000", "124316.044000", "124316.047000", "124316.050000", "124316.052000", "124316.055000", "124355.990000", "124355.992000", "124355.995000", "124355.998000", "124356.001000", "124356.004000", "124356.006000", "124356.009000", "124356.012000", "124356.014000", "124356.017000", "124356.020000", "124356.022000", "124356.025000", "124356.027000", "124356.030000", "124356.032000", "124356.035000", "124356.037000", "124356.040000", "124435.991000", "124435.993000", "124435.996000", "124435.998000", "124436.002000", "124436.005000", "124436.007000", "124436.010000", "124436.013000", "124436.015000", "124436.018000", "124436.020000", "124436.023000", "124436.026000", "124436.028000", "124436.031000", "124436.033000", "124436.036000", "124436.038000", "124436.041000", "124515.991000", "124515.993000", "124515.996000", "124515.998000", "124516.002000", "124516.005000", "124516.007000", "124516.010000", "124516.013000", "124516.015000", "124516.018000", "124516.020000", "124516.023000", "124516.025000", "124516.028000", "124516.031000", "124516.033000", "124516.036000", "124516.038000", "124516.041000", "124555.990000", "124555.992000", "124555.995000", "124555.998000", "124556.001000", "124556.004000", "124556.006000", "124556.009000", "124556.012000", "124556.015000", "124556.017000", "124556.020000", "124556.022000", "124556.025000", "124556.027000", "124556.030000", "124556.033000", "124556.035000", "124556.038000", "124556.040000", "124635.991000", "124635.993000", "124635.996000", "124635.998000", "124636.001000", "124636.004000", "124636.006000", "124636.009000", "124636.012000", "124636.014000", "124636.017000", "124636.019000", "124636.022000", "124636.025000", "124636.027000", "124636.030000", "124636.032000", "124636.035000", "124636.037000", "124636.040000", "124715.991000", "124715.993000", "124715.996000", "124715.998000", "124716.002000", "124716.005000", "124716.007000", "124716.010000", "124716.012000", "124716.015000", "124716.018000", "124716.020000", "124716.023000", "124716.025000", "124716.028000", "124716.030000", "124716.033000", "124716.047000", "124716.049000", "124716.052000", "124755.990000", "124755.993000", "124755.996000", "124755.998000", "124756.002000", "124756.004000", "124756.007000", "124756.010000", "124756.012000", "124756.015000", "124756.017000", "124756.020000", "124756.023000", "124756.025000", "124756.028000", "124756.030000", "124756.033000", "124756.036000", "124756.038000", "124756.041000", "124835.990000", "124835.992000", "124835.995000", "124835.997000", "124836.002000", "124836.004000", "124836.007000", "124836.009000", "124836.012000", "124836.014000", "124836.017000", "124836.020000", "124836.022000", "124836.025000", "124836.028000", "124836.030000", "124836.033000", "124836.035000", "124836.038000", "124836.041000", "124915.991000", "124915.993000", "124915.996000", "124916.000000", "124916.002000", "124916.005000", "124916.008000", "124916.010000", "124916.013000", "124916.015000", "124916.018000", "124916.020000", "124916.023000", "124916.026000", "124916.028000", "124916.031000", "124916.034000", "124916.036000", "124916.039000", "124916.041000", "124955.990000", "124955.993000", "124955.996000", "124955.998000", "124956.002000", "124956.005000", "124956.008000", "124956.010000", "124956.013000", "124956.016000", "124956.018000", "124956.021000", "124956.023000", "124956.026000", "124956.028000", "124956.031000", "124956.034000", "124956.036000", "124956.039000", "124956.041000", "125035.990000", "125035.992000", "125035.995000", "125035.998000", "125036.002000", "125036.004000", "125036.007000", "125036.009000", "125036.012000", "125036.015000", "125036.017000", "125036.020000", "125036.022000", "125036.025000", "125036.027000", "125036.030000", "125036.033000", "125036.035000", "125036.038000", "125036.040000", "125115.991000", "125115.993000", "125115.996000", "125115.998000", "125116.001000", "125116.004000", "125116.007000", "125116.009000", "125116.012000", "125116.014000", "125116.017000", "125116.020000", "125116.022000", "125116.025000", "125116.027000", "125116.030000", "125116.033000", "125116.035000", "125116.038000", "125116.040000", "125155.990000", "125155.993000", "125155.996000", "125155.998000", "125156.003000", "125156.005000", "125156.008000", "125156.010000", "125156.013000", "125156.015000", "125156.018000", "125156.021000", "125156.023000", "125156.026000", "125156.028000", "125156.031000", "125156.034000", "125156.036000", "125156.039000", "125156.041000", "125235.991000", "125235.993000", "125235.996000", "125236.000000", "125236.003000", "125236.005000", "125236.008000", "125236.010000", "125236.013000", "125236.016000", "125236.019000", "125236.021000", "125236.024000", "125236.026000", "125236.029000", "125236.031000", "125236.034000", "125236.037000", "125236.039000", "125236.042000", "125315.990000", "125315.992000", "125315.995000", "125315.998000", "125316.001000", "125316.004000", "125316.007000", "125316.009000", "125316.012000", "125316.015000", "125316.017000", "125316.020000", "125316.022000", "125316.025000", "125316.028000", "125316.030000", "125316.033000", "125316.035000", "125316.038000", "125316.040000", "125355.991000", "125355.993000", "125355.996000", "125355.998000", "125356.003000", "125356.005000", "125356.008000", "125356.010000", "125356.013000", "125356.016000", "125356.018000", "125356.021000", "125356.024000", "125356.026000", "125356.029000", "125356.031000", "125356.034000", "125356.037000", "125356.039000", "125356.042000", "125435.991000", "125435.993000", "125435.996000", "125435.998000", "125436.003000", "125436.005000", "125436.008000", "125436.010000", "125436.013000", "125436.016000", "125436.018000", "125436.021000", "125436.023000", "125436.026000", "125436.028000", "125436.031000", "125436.034000", "125436.036000", "125436.039000", "125436.041000", "125515.989000", "125515.992000", "125515.995000", "125515.997000", "125516.001000", "125516.004000", "125516.006000", "125516.009000", "125516.012000", "125516.014000", "125516.017000", "125516.019000", "125516.022000", "125516.025000", "125516.027000", "125516.030000", "125516.032000", "125516.035000", "125516.037000", "125516.040000", "125555.991000", "125555.993000", "125555.996000", "125555.998000", "125556.001000", "125556.004000", "125556.006000", "125556.009000", "125556.012000", "125556.014000", "125556.017000", "125556.019000", "125556.022000", "125556.025000", "125556.027000", "125556.030000", "125556.033000", "125556.035000", "125556.038000", "125556.041000", "125635.991000", "125635.994000", "125635.996000", "125636.000000", "125636.003000", "125636.005000", "125636.008000", "125636.011000", "125636.013000", "125636.016000", "125636.018000", "125636.021000", "125636.024000", "125636.027000", "125636.029000", "125636.032000", "125636.034000", "125636.037000", "125636.039000", "125636.042000", "125715.991000", "125715.993000", "125715.996000", "125715.998000", "125716.002000", "125716.005000", "125716.008000", "125716.010000", "125716.013000", "125716.015000", "125716.018000", "125716.020000", "125716.023000", "125716.026000", "125716.028000", "125716.031000", "125716.034000", "125716.036000", "125716.039000", "125716.041000", "125736.415000", "125736.418000", "125736.420000", "125736.424000", "125736.427000", "125736.430000", "125736.432000", "125736.435000", "125736.439000", "125736.442000"],
