{
  "AcquisitionMatrixPE": 96,
  "AcquisitionNumber": 1,
  "AcquisitionTime": "12:33:48.387500",
  "BandwidthPerPixelPhaseEncode": 20.425,
  "BaseResolution": 96,
  "BodyPartExamined": "BRAIN",
  "CoilCombinationMethod": "Sum of Squares",
  "ConsistencyInfo": "N4_VE11C_LATEST_20160120",
  "ConversionSoftware": "dcm2niix",
  "ConversionSoftwareVersion": "v1.0.20211006",
  "DerivedVendorReportedEchoSpacing": 0.000509996,
  "DeviceSerialNumber": "166054",
  "DwellTime": 2.3e-06,
  "EchoTime": 0.03,
  "EchoTrainLength": 96,
  "EffectiveEchoSpacing": 0.000509996,
  "FlipAngle": 75,
  "HeudiconvVersion": "0.11.3+d20220512",
  "ImageComments": "Unaliased MB2/PE2",
  "ImageOrientationPatientDICOM": [0.99793, 0.00262013, 0.0642545, 0.0277004, 0.88421, -0.466268],
  "ImageOrientationText": "Tra>Cor(-27.9)>Sag(3.3)",
  "ImageType": [
    "ORIGINAL",
    "PRIMARY",
    "M",
    "MB",
    "ND",
    "MOSAIC"
],
  "ImagingFrequency": 123.26,
  "InPlanePhaseEncodingDirectionDICOM": "COL",
  "InstitutionAddress": "Street StreetNo,City,District,IL,ZIP",
  "InstitutionName": "Weizmann Institute",
  "InstitutionalDepartmentName": "Department",
  "MRAcquisitionType": "2D",
  "MagneticFieldStrength": 3,
  "Manufacturer": "Siemens",
  "ManufacturersModelName": "Prisma",
  "MatrixCoilMode": "SENSE",
  "Modality": "MR",
  "MultibandAccelerationFactor": 2,
  "PartialFourier": 1,
  "PatientPosition": "HFS",
  "PercentPhaseFOV": 100,
  "PercentSampling": 100,
  "PhaseEncodingDirection": "j-",
  "PhaseEncodingSteps": 96,
  "PhaseResolution": 1,
  "PixelBandwidth": 2265,
  "ProcedureStepDescription": "Weizmann^Sobel",
  "ProtocolName": "EPI_PSAP_iso2.5",
  "PulseSequenceDetails": "%CustomerSeq%\\cmrr_mbep2d_bold",
  "ReceiveCoilActiveElements": "HEA;HEP",
  "ReceiveCoilName": "Head_32",
  "ReconMatrixPE": 96,
  "RepetitionTime": 2,
  "SAR": 0.101563,
  "ScanOptions": "FS",
  "ScanningSequence": "EP",
  "SequenceName": "epfid2d1_96",
  "SequenceVariant": "SK\\SS",
  "SeriesDescription": "EPI_PSAP_iso2.5",
  "SeriesNumber": 6,
  "ShimSetting": [5916, -4060, -1955, 516, 43, 85, 83, 2],
  "SliceThickness": 2.5,
  "SliceTiming": [0, 0.92, 1.84, 0.7775, 1.6975, 0.6375, 1.555, 0.495, 1.415, 0.355, 1.2725, 0.2125, 1.1325, 0.07, 0.99, 1.91, 0.85, 1.7675, 0.7075, 1.6275, 0.565, 1.485, 0.425, 1.345, 0.2825, 1.2025, 0.1425, 1.06, 0, 0.92, 1.84, 0.7775, 1.6975, 0.6375, 1.555, 0.495, 1.415, 0.355, 1.2725, 0.2125, 1.1325, 0.07, 0.99, 1.91, 0.85, 1.7675, 0.7075, 1.6275, 0.565, 1.485, 0.425, 1.345, 0.2825, 1.2025, 0.1425, 1.06],
  "SoftwareVersions": "syngo MR E11",
  "SpacingBetweenSlices": 2.5,
  "StationName": "AWP166054",
  "TaskName": "PSAP",
  "TotalReadoutTime": 0.0484496,
  "TxRefAmp": 248,
  "VendorReportedEchoSpacing": 0.00051,
  "WipMemBlock": "e0a4fa31-be71-4863-bb6c-7992c6db2b2b||Sequence: R016 ve11c/master r/e634e98; Dec 19 2017 11:00:25 by eja",
  "dcmmeta_affine": [
    [-2.4948253631591797, 0.06925100833177567, 0.14509029686450958, 112.6047592163086],
    [-0.0065503232181072235, 2.210524320602417, -1.1677069664001465, -66.9911880493164],
    [0.16063620150089264, 1.1656700372695923, 2.2057671546936035, -150.52012634277344],
    [0.0, 0.0, 0.0, 1.0]
],
  "dcmmeta_reorient_transform": [
    [0.0, -1.0, 0.0, 95.0],
    [1.0, 0.0, 0.0, 0.0],
    [0.0, 0.0, 1.0, 0.0],
    [0.0, 0.0, 0.0, 1.0]
],
  "dcmmeta_shape": [96, 96, 56, 495],
  "dcmmeta_slice_dim": 2,
  "dcmmeta_version": 0.6,
  "global": {
    "const": {
      "AcquisitionMatrix": [96, 0, 0, 96],
      "AngioFlag": "N",
      "BitsAllocated": 16,
      "BitsStored": 16,
      "BodyPartExamined": "BRAIN",
      "Columns": 768,
      "EchoNumbers": 1,
      "EchoTime": 30.0,
      "EchoTrainLength": 96,
      "FlipAngle": 75.0,
      "HighBit": 15,
      "ImageOrientationPatient": [0.99793010597854, 0.00262012936762, 0.06425448236318, 0.02770040341309, 0.88420971489267, -0.466268021357],
      "ImagePositionPatient": [-980.71323421974, -887.94568552406, 297.90990325683],
      "ImageType": [
        "ORIGINAL",
        "PRIMARY",
        "M",
        "MB",
        "ND",
        "MOSAIC"
],
      "ImagedNucleus": "1H",
      "ImagingFrequency": 123.260239,
      "InPlanePhaseEncodingDirection": "COL",
      "MRAcquisitionType": "2D",
      "MagneticFieldStrength": 3.0,
      "Manufacturer": "SIEMENS",
      "ManufacturerModelName": "Prisma",
      "Modality": "MR",
      "NumberOfAverages": 1.0,
      "NumberOfPhaseEncodingSteps": 96,
      "PercentPhaseFieldOfView": 100.0,
      "PercentSampling": 100.0,
      "PerformedProcedureStepStartTime": "115300.065000",
      "PhotometricInterpretation": "MONOCHROME2",
      "PixelBandwidth": 2265.0,
      "PixelRepresentation": 0,
      "PixelSpacing": [2.5, 2.5],
      "ProtocolName": "EPI_PSAP_iso2.5",
      "RepetitionTime": 2000.0,
      "Rows": 768,
      "SAR": 0.10156343391814,
      "SamplesPerPixel": 1,
      "ScanOptions": "FS",
      "ScanningSequence": "EP",
      "SequenceName": "epfid2d1_96",
      "SequenceVariant": [
        "SK",
        "SS"
],
      "SeriesDescription": "EPI_PSAP_iso2.5",
      "SeriesNumber": 6,
      "SeriesTime": "123444.097000",
      "SliceLocation": -94.979372380328,
      "SliceThickness": 2.5,
      "SmallestImagePixelValue": 0,
      "SoftwareVersions": "syngo MR E11",
      "SpacingBetweenSlices": 2.4999999786462,
      "SpecificCharacterSet": "ISO_IR 100",
      "StudyID": "2",
      "StudyTime": "115259.984000",
      "TransmitCoilName": "Body",
      "VariableFlipAngleFlag": "N",
      "WindowCenterWidthExplanation": "Algo1",
      "dBdt": 0.0},
    "slices": {}
  },
  "time": {
    "samples": {
      "AcquisitionNumber": [1, 2, 3, 4, 5, 6, 7, 8, 9, 10, 11, 12, 13, 14, 15, 16, 17, 18, 19, 20, 21, 22, 23, 24, 25, 26, 27, 28, 29, 30, 31, 32, 33, 34, 35, 36, 37, 38, 39, 40, 41, 42, 43, 44, 45, 46, 47, 48, 49, 50, 51, 52, 53, 54, 55, 56, 57, 58, 59, 60, 61, 62, 63, 64, 65, 66, 67, 68, 69, 70, 71, 72, 73, 74, 75, 76, 77, 78, 79, 80, 81, 82, 83, 84, 85, 86, 87, 88, 89, 90, 91, 92, 93, 94, 95, 96, 97, 98, 99, 100, 101, 102, 103, 104, 105, 106, 107, 108, 109, 110, 111, 112, 113, 114, 115, 116, 117, 118, 119, 120, 121, 122, 123, 124, 125, 126, 127, 128, 129, 130, 131, 132, 133, 134, 135, 136, 137, 138, 139, 140, 141, 142, 143, 144, 145, 146, 147, 148, 149, 150, 151, 152, 153, 154, 155, 156, 157, 158, 159, 160, 161, 162, 163, 164, 165, 166, 167, 168, 169, 170, 171, 172, 173, 174, 175, 176, 177, 178, 179, 180, 181, 182, 183, 184, 185, 186, 187, 188, 189, 190, 191, 192, 193, 194, 195, 196, 197, 198, 199, 200, 201, 202, 203, 204, 205, 206, 207, 208, 209, 210, 211, 212, 213, 214, 215, 216, 217, 218, 219, 220, 221, 222, 223, 224, 225, 226, 227, 228, 229, 230, 231, 232, 233, 234, 235, 236, 237, 238, 239, 240, 241, 242, 243, 244, 245, 246, 247, 248, 249, 250, 251, 252, 253, 254, 255, 256, 257, 258, 259, 260, 261, 262, 263, 264, 265, 266, 267, 268, 269, 270, 271, 272, 273, 274, 275, 276, 277, 278, 279, 280, 281, 282, 283, 284, 285, 286, 287, 288, 289, 290, 291, 292, 293, 294, 295, 296, 297, 298, 299, 300, 301, 302, 303, 304, 305, 306, 307, 308, 309, 310, 311, 312, 313, 314, 315, 316, 317, 318, 319, 320, 321, 322, 323, 324, 325, 326, 327, 328, 329, 330, 331, 332, 333, 334, 335, 336, 337, 338, 339, 340, 341, 342, 343, 344, 345, 346, 347, 348, 349, 350, 351, 352, 353, 354, 355, 356, 357, 358, 359, 360, 361, 362, 363, 364, 365, 366, 367, 368, 369, 370, 371, 372, 373, 374, 375, 376, 377, 378, 379, 380, 381, 382, 383, 384, 385, 386, 387, 388, 389, 390, 391, 392, 393, 394, 395, 396, 397, 398, 399, 400, 401, 402, 403, 404, 405, 406, 407, 408, 409, 410, 411, 412, 413, 414, 415, 416, 417, 418, 419, 420, 421, 422, 423, 424, 425, 426, 427, 428, 429, 430, 431, 432, 433, 434, 435, 436, 437, 438, 439, 440, 441, 442, 443, 444, 445, 446, 447, 448, 449, 450, 451, 452, 453, 454, 455, 456, 457, 458, 459, 460, 461, 462, 463, 464, 465, 466, 467, 468, 469, 470, 471, 472, 473, 474, 475, 476, 477, 478, 479, 480, 481, 482, 483, 484, 485, 486, 487, 488, 489, 490, 491, 492, 493, 494, 495],
      "AcquisitionTime": ["123348.387500", "123350.387500", "123352.387500", "123354.387500", "123356.387500", "123358.387500", "123400.387500", "123402.387500", "123404.387500", "123406.387500", "123408.387500", "123410.387500", "123412.387500", "123414.387500", "123416.387500", "123418.387500", "123420.387500", "123422.387500", "123424.387500", "123426.387500", "123428.387500", "123430.387500", "123432.387500", "123434.387500", "123436.387500", "123438.387500", "123440.387500", "123442.387500", "123444.387500", "123446.387500", "123448.387500", "123450.387500", "123452.387500", "123454.387500", "123456.387500", "123458.387500", "123500.387500", "123502.387500", "123504.387500", "123506.387500", "123508.387500", "123510.387500", "123512.387500", "123514.387500", "123516.387500", "123518.387500", "123520.387500", "123522.387500", "123524.387500", "123526.387500", "123528.387500", "123530.387500", "123532.387500", "123534.387500", "123536.387500", "123538.387500", "123540.387500", "123542.387500", "123544.387500", "123546.387500", "123548.387500", "123550.387500", "123552.387500", "123554.387500", "123556.387500", "123558.387500", "123600.387500", "123602.387500", "123604.387500", "123606.387500", "123608.387500", "123610.387500", "123612.387500", "123614.387500", "123616.387500", "123618.387500", "123620.387500", "123622.387500", "123624.387500", "123626.387500", "123628.387500", "123630.387500", "123632.387500", "123634.387500", "123636.387500", "123638.387500", "123640.387500", "123642.387500", "123644.387500", "123646.387500", "123648.387500", "123650.387500", "123652.387500", "123654.387500", "123656.387500", "123658.387500", "123700.387500", "123702.387500", "123704.387500", "123706.387500", "123708.387500", "123710.387500", "123712.387500", "123714.387500", "123716.387500", "123718.387500", "123720.387500", "123722.387500", "123724.387500", "123726.387500", "123728.387500", "123730.387500", "123732.387500", "123734.387500", "123736.387500", "123738.387500", "123740.387500", "123742.387500", "123744.387500", "123746.387500", "123748.387500", "123750.387500", "123752.387500", "123754.387500", "123756.387500", "123758.387500", "123800.387500", "123802.387500", "123804.387500", "123806.387500", "123808.387500", "123810.387500", "123812.387500", "123814.387500", "123816.387500", "123818.387500", "123820.387500", "123822.387500", "123824.387500", "123826.387500", "123828.387500", "123830.387500", "123832.387500", "123834.387500", "123836.387500", "123838.387500", "123840.387500", "123842.387500", "123844.387500", "123846.387500", "123848.387500", "123850.387500", "123852.387500", "123854.387500", "123856.387500", "123858.387500", "123900.387500", "123902.387500", "123904.387500", "123906.387500", "123908.387500", "123910.387500", "123912.387500", "123914.387500", "123916.387500", "123918.387500", "123920.387500", "123922.387500", "123924.387500", "123926.387500", "123928.387500", "123930.387500", "123932.387500", "123934.387500", "123936.387500", "123938.387500", "123940.387500", "123942.387500", "123944.387500", "123946.387500", "123948.387500", "123950.387500", "123952.387500", "123954.387500", "123956.387500", "123958.387500", "124000.387500", "124002.387500", "124004.387500", "124006.387500", "124008.387500", "124010.387500", "124012.387500", "124014.387500", "124016.387500", "124018.387500", "124020.387500", "124022.387500", "124024.387500", "124026.387500", "124028.387500", "124030.387500", "124032.387500", "124034.387500", "124036.387500", "124038.387500", "124040.387500", "124042.387500", "124044.387500", "124046.387500", "124048.387500", "124050.387500", "124052.387500", "124054.387500", "124056.387500", "124058.387500", "124100.387500", "124102.387500", "124104.387500", "124106.387500", "124108.387500", "124110.387500", "124112.387500", "124114.387500", "124116.387500", "124118.387500", "124120.387500", "124122.387500", "124124.387500", "124126.387500", "124128.387500", "124130.387500", "124132.387500", "124134.387500", "124136.387500", "124138.387500", "124140.387500", "124142.387500", "124144.387500", "124146.387500", "124148.387500", "124150.387500", "124152.387500", "124154.387500", "124156.387500", "124158.387500", "124200.387500", "124202.387500", "124204.387500", "124206.387500", "124208.387500", "124210.387500", "124212.387500", "124214.387500", "124216.387500", "124218.387500", "124220.387500", "124222.387500", "124224.387500", "124226.387500", "124228.387500", "124230.387500", "124232.387500", "124234.387500", "124236.387500", "124238.387500", "124240.387500", "124242.387500", "124244.387500", "124246.387500", "124248.387500", "124250.387500", "124252.387500", "124254.387500", "124256.387500", "124258.387500", "124300.387500", "124302.387500", "124304.387500", "124306.387500", "124308.387500", "124310.387500", "124312.387500", "124314.387500", "124316.387500", "124318.387500", "124320.387500", "124322.387500", "124324.387500", "124326.387500", "124328.387500", "124330.387500", "124332.387500", "124334.387500", "124336.387500", "124338.387500", "124340.387500", "124342.387500", "124344.387500", "124346.387500", "124348.387500", "124350.387500", "124352.387500", "124354.387500", "124356.387500", "124358.387500", "124400.387500", "124402.387500", "124404.387500", "124406.387500", "124408.387500", "124410.387500", "124412.387500", "124414.387500", "124416.387500", "124418.387500", "124420.387500", "124422.387500", "124424.387500", "124426.387500", "124428.387500", "124430.387500", "124432.387500", "124434.387500", "124436.387500", "124438.387500", "124440.387500", "124442.387500", "124444.387500", "124446.387500", "124448.387500", "124450.387500", "124452.387500", "124454.387500", "124456.387500", "124458.387500", "124500.387500", "124502.387500", "124504.387500", "124506.387500", "124508.387500", "124510.387500", "124512.387500", "124514.387500", "124516.387500", "124518.387500", "124520.387500", "124522.387500", "124524.387500", "124526.387500", "124528.387500", "124530.387500", "124532.387500", "124534.387500", "124536.387500", "124538.387500", "124540.387500", "124542.387500", "124544.387500", "124546.387500", "124548.387500", "124550.387500", "124552.387500", "124554.387500", "124556.387500", "124558.387500", "124600.387500", "124602.387500", "124604.387500", "124606.387500", "124608.387500", "124610.387500", "124612.387500", "124614.387500", "124616.387500", "124618.387500", "124620.387500", "124622.387500", "124624.387500", "124626.387500", "124628.387500", "124630.387500", "124632.387500", "124634.387500", "124636.387500", "124638.387500", "124640.387500", "124642.387500", "124644.387500", "124646.387500", "124648.387500", "124650.387500", "124652.387500", "124654.387500", "124656.387500", "124658.387500", "124700.387500", "124702.387500", "124704.387500", "124706.387500", "124708.387500", "124710.387500", "124712.387500", "124714.387500", "124716.387500", "124718.387500", "124720.387500", "124722.387500", "124724.387500", "124726.387500", "124728.387500", "124730.387500", "124732.387500", "124734.387500", "124736.387500", "124738.387500", "124740.387500", "124742.387500", "124744.387500", "124746.387500", "124748.387500", "124750.387500", "124752.387500", "124754.387500", "124756.387500", "124758.387500", "124800.387500", "124802.387500", "124804.387500", "124806.387500", "124808.387500", "124810.387500", "124812.387500", "124814.387500", "124816.387500", "124818.387500", "124820.387500", "124822.387500", "124824.387500", "124826.387500", "124828.387500", "124830.387500", "124832.387500", "124834.387500", "124836.387500", "124838.387500", "124840.387500", "124842.387500", "124844.387500", "124846.387500", "124848.387500", "124850.387500", "124852.387500", "124854.387500", "124856.387500", "124858.387500", "124900.387500", "124902.387500", "124904.387500", "124906.387500", "124908.387500", "124910.387500", "124912.387500", "124914.387500", "124916.387500", "124918.387500", "124920.387500", "124922.387500", "124924.387500", "124926.387500", "124928.387500", "124930.387500", "124932.387500", "124934.387500", "124936.387500", "124938.387500", "124940.387500", "124942.387500", "124944.387500", "124946.387500", "124948.387500", "124950.387500", "124952.387500", "124954.387500", "124956.387500", "124958.387500", "125000.387500", "125002.387500", "125004.387500", "125006.387500", "125008.387500", "125010.387500", "125012.387500", "125014.387500", "125016.387500"],
      "ContentTime": ["123444.100000", "123444.103000", "123444.106000", "123444.109000", "123444.111000", "123444.113000", "123444.116000", "123444.119000", "123444.121000", "123444.124000", "123444.126000", "123444.129000", "123444.132000", "123444.134000", "123444.137000", "123444.144000", "123444.146000", "123444.149000", "123444.152000", "123444.154000", "123444.157000", "123444.160000", "123444.162000", "123444.165000", "123444.167000", "123444.170000", "123444.174000", "123504.064000", "123504.066000", "123504.069000", "123504.080000", "123504.082000", "123504.085000", "123504.087000", "123504.090000", "123504.092000", "123504.095000", "123544.063000", "123544.066000", "123544.069000", "123544.071000", "123544.074000", "123544.077000", "123544.079000", "123544.082000", "123544.084000", "123544.087000", "123544.089000", "123544.092000", "123544.094000", "123544.097000", "123544.099000", "123544.102000", "123544.104000", "123544.118000", "123544.120000", "123544.123000", "123624.063000", "123624.066000", "123624.069000", "123624.071000", "123624.074000", "123624.076000", "123624.079000", "123624.081000", "123624.084000", "123624.087000", "123624.089000", "123624.092000", "123624.094000", "123624.097000", "123624.099000", "123624.102000", "123624.105000", "123624.107000", "123624.109000", "123624.112000", "123704.063000", "123704.066000", "123704.069000", "123704.071000", "123704.074000", "123704.087000", "123704.090000", "123704.092000", "123704.095000", "123704.097000", "123704.100000", "123704.102000", "123704.105000", "123704.108000", "123704.110000", "123704.113000", "123704.115000", "123704.118000", "123704.120000", "123704.123000", "123744.064000", "123744.066000", "123744.069000", "123744.071000", "123744.074000", "123744.076000", "123744.079000", "123744.081000", "123744.084000", "123744.087000", "123744.089000", "123744.092000", "123744.094000", "123744.097000", "123744.099000", "123744.102000", "123744.104000", "123744.107000", "123744.109000", "123744.112000", "123824.063000", "123824.066000", "123824.069000", "123824.071000", "123824.074000", "123824.076000", "123824.079000", "123824.081000", "123824.084000", "123824.087000", "123824.089000", "123824.092000", "123824.094000", "123824.097000", "123824.099000", "123824.102000", "123824.104000", "123824.107000", "123824.110000", "123824.113000", "123904.063000", "123904.066000", "123904.069000", "123904.071000", "123904.075000", "123904.077000", "123904.080000", "123904.082000", "123904.085000", "123904.087000", "123904.090000", "123904.092000", "123904.095000", "123904.098000", "123904.100000", "123904.103000", "123904.105000", "123904.108000", "123904.113000", "123904.116000", "123944.064000", "123944.066000", "123944.069000", "123944.071000", "123944.074000", "123944.077000", "123944.079000", "123944.082000", "123944.084000", "123944.087000", "123944.089000", "123944.092000", "123944.094000", "123944.097000", "123944.099000", "123944.102000", "123944.105000", "123944.107000", "123944.110000", "123944.112000", "124024.064000", "124024.067000", "124024.069000", "124024.072000", "124024.074000", "124024.077000", "124024.079000", "124024.082000", "124024.085000", "124024.087000", "124024.090000", "124024.093000", "124024.095000", "124024.098000", "124024.100000", "124024.103000", "124024.105000", "124024.108000", "124024.110000", "124024.113000", "124104.064000", "124104.067000", "124104.069000", "124104.072000", "124104.074000", "124104.077000", "124104.080000", "124104.082000", "124104.085000", "124104.087000", "124104.090000", "124104.092000", "124104.095000", "124104.097000", "124104.100000", "124104.103000", "124104.105000", "124104.108000", "124104.110000", "124104.113000", "124144.063000", "124144.066000", "124144.083000", "124144.086000", "124144.088000", "124144.091000", "124144.094000", "124144.096000", "124144.099000", "124144.101000", "124144.104000", "124144.106000", "124144.109000", "124144.112000", "124144.114000", "124144.117000", "124144.119000", "124144.122000", "124144.124000", "124144.127000", "124224.064000", "124224.066000", "124224.069000", "124224.071000", "124224.074000", "124224.077000", "124224.079000", "124224.082000", "124224.084000", "124224.087000", "124224.090000", "124224.092000", "124224.095000", "124224.097000", "124224.100000", "124224.102000", "124224.105000", "124224.108000", "124224.110000", "124224.113000", "124304.064000", "124304.066000", "124304.069000", "124304.071000", "124304.074000", "124304.077000", "124304.079000", "124304.082000", "124304.084000", "124304.087000", "124304.089000", "124304.092000", "124304.095000", "124304.097000", "124304.100000", "124304.102000", "124304.105000", "124304.107000", "124304.110000", "124304.112000", "124344.063000", "124344.066000", "124344.069000", "124344.071000", "124344.074000", "124344.077000", "124344.079000", "124344.082000", "124344.085000", "124344.087000", "124344.090000", "124344.092000", "124344.095000", "124344.097000", "124344.100000", "124344.102000", "124344.105000", "124344.108000", "124344.110000", "124344.113000", "124424.064000", "124424.066000", "124424.069000", "124424.071000", "124424.074000", "124424.077000", "124424.080000", "124424.082000", "124424.085000", "124424.087000", "124424.090000", "124424.092000", "124424.095000", "124424.097000", "124424.100000", "124424.102000", "124424.105000", "124424.108000", "124424.110000", "124424.113000", "124504.064000", "124504.067000", "124504.069000", "124504.072000", "124504.074000", "124504.077000", "124504.079000", "124504.082000", "124504.085000", "124504.087000", "124504.089000", "124504.092000", "124504.095000", "124504.118000", "124504.120000", "124504.123000", "124504.126000", "124504.128000", "124504.131000", "124504.133000", "124544.063000", "124544.066000", "124544.069000", "124544.071000", "124544.074000", "124544.077000", "124544.079000", "124544.082000", "124544.085000", "124544.087000", "124544.090000", "124544.092000", "124544.095000", "124544.097000", "124544.100000", "124544.102000", "124544.105000", "124544.108000", "124544.110000", "124544.113000", "124624.064000", "124624.066000", "124624.069000", "124624.071000", "124624.074000", "124624.077000", "124624.079000", "124624.082000", "124624.084000", "124624.087000", "124624.089000", "124624.092000", "124624.095000", "124624.097000", "124624.100000", "124624.102000", "124624.105000", "124624.107000", "124624.110000", "124624.112000", "124704.064000", "124704.066000", "124704.069000", "124704.071000", "124704.074000", "124704.077000", "124704.079000", "124704.082000", "124704.084000", "124704.087000", "124704.089000", "124704.092000", "124704.095000", "124704.097000", "124704.100000", "124704.102000", "124704.105000", "124704.107000", "124704.110000", "124704.112000", "124744.063000", "124744.066000", "124744.076000", "124744.079000", "124744.082000", "124744.084000", "124744.087000", "124744.089000", "124744.092000", "124744.094000", "124744.097000", "124744.099000", "124744.102000", "124744.105000", "124744.107000", "124744.110000", "124744.112000", "124744.115000", "124744.117000", "124744.120000", "124824.064000", "124824.066000", "124824.069000", "124824.071000", "124824.074000", "124824.077000", "124824.079000", "124824.082000", "124824.085000", "124824.087000", "124824.090000", "124824.092000", "124824.095000", "124824.097000", "124824.100000", "124824.102000", "124824.105000", "124824.108000", "124824.110000", "124824.113000", "124904.063000", "124904.066000", "124904.069000", "124904.071000", "124904.074000", "124904.076000", "124904.079000", "124904.082000", "124904.084000", "124904.087000", "124904.089000", "124904.092000", "124904.094000", "124904.097000", "124904.099000", "124904.102000", "124904.105000", "124904.107000", "124904.110000", "124904.112000", "124944.063000", "124944.066000", "124944.069000", "124944.071000", "124944.074000", "124944.077000", "124944.079000", "124944.082000", "124944.084000", "124944.087000", "124944.089000", "124944.092000", "124944.095000", "124944.097000", "124944.100000", "124944.103000", "124944.105000", "124944.108000", "124944.110000", "124944.113000", "125019.883000", "125019.887000", "125019.890000", "125019.893000", "125019.896000", "125019.899000", "125019.902000", "125019.905000", "125019.908000", "125019.911000", "125019.913000", "125019.916000", "125019.919000", "125019.922000", "125019.924000", "125019.927000", "125019.929000", "125019.932000"],
