{
  "AcquisitionMatrixPE": 96,
  "AcquisitionNumber": 1,
  "AcquisitionTime": "12:33:26.450000",
  "BandwidthPerPixelPhaseEncode": 20.425,
  "BaseResolution": 96,
  "BodyPartExamined": "BRAIN",
  "CoilCombinationMethod": "Sum of Squares",
  "ConsistencyInfo": "N4_VE11C_LATEST_20160120",
  "ConversionSoftware": "dcm2niix",
  "ConversionSoftwareVersion": "v1.0.20211006",
  "DerivedVendorReportedEchoSpacing": 0.000509996,
  "DeviceSerialNumber": "166054",
  "DwellTime": 2.3e-06,
  "EchoTime": 0.03,
  "EchoTrainLength": 96,
  "EffectiveEchoSpacing": 0.000509996,
  "FlipAngle": 75,
  "HeudiconvVersion": "0.11.3+d20220512",
  "ImageComments": "Unaliased MB2/PE2",
  "ImageOrientationPatientDICOM": [0.999887, 0.0129906, 0.00752247, -0.00855136, 0.904773, -0.425809],
  "ImageOrientationText": "Tra>Cor(-25.2)>Sag(0.7)",
  "ImageType": [
    "ORIGINAL",
    "PRIMARY",
    "M",
    "MB",
    "ND",
    "MOSAIC"
],
  "ImagingFrequency": 123.26,
  "InPlanePhaseEncodingDirectionDICOM": "COL",
  "InstitutionAddress": "Street StreetNo,City,District,IL,ZIP",
  "InstitutionName": "Weizmann Institute",
  "InstitutionalDepartmentName": "Department",
  "MRAcquisitionType": "2D",
  "MagneticFieldStrength": 3,
  "Manufacturer": "Siemens",
  "ManufacturersModelName": "Prisma",
  "MatrixCoilMode": "SENSE",
  "Modality": "MR",
  "MultibandAccelerationFactor": 2,
  "PartialFourier": 1,
  "PatientPosition": "HFS",
  "PercentPhaseFOV": 100,
  "PercentSampling": 100,
  "PhaseEncodingDirection": "j-",
  "PhaseEncodingSteps": 96,
  "PhaseResolution": 1,
  "PixelBandwidth": 2265,
  "ProcedureStepDescription": "Weizmann^Sobel",
  "ProtocolName": "EPI_PSAP_iso2.5",
  "PulseSequenceDetails": "%CustomerSeq%\\cmrr_mbep2d_bold",
  "ReceiveCoilActiveElements": "HEA;HEP",
  "ReceiveCoilName": "Head_32",
  "ReconMatrixPE": 96,
  "RepetitionTime": 2,
  "SAR": 0.0971698,
  "ScanOptions": "FS",
  "ScanningSequence": "EP",
  "SequenceName": "epfid2d1_96",
  "SequenceVariant": "SK\\SS",
  "SeriesDescription": "EPI_PSAP_iso2.5",
  "SeriesNumber": 6,
  "ShimSetting": [5915, -4071, -1986, 513, 67, 94, 100, 11],
  "SliceThickness": 2.5,
  "SliceTiming": [0, 0.92, 1.8375, 0.7775, 1.6975, 0.635, 1.555, 0.495, 1.415, 0.3525, 1.2725, 0.2125, 1.13, 0.07, 0.99, 1.9075, 0.8475, 1.7675, 0.7075, 1.625, 0.565, 1.485, 0.425, 1.3425, 0.2825, 1.2025, 0.14, 1.06, 0, 0.92, 1.8375, 0.7775, 1.6975, 0.635, 1.555, 0.495, 1.415, 0.3525, 1.2725, 0.2125, 1.13, 0.07, 0.99, 1.9075, 0.8475, 1.7675, 0.7075, 1.625, 0.565, 1.485, 0.425, 1.3425, 0.2825, 1.2025, 0.14, 1.06],
  "SoftwareVersions": "syngo MR E11",
  "SpacingBetweenSlices": 2.5,
  "StationName": "AWP166054",
  "TaskName": "PSAP",
  "TotalReadoutTime": 0.0484496,
  "TxRefAmp": 245.5,
  "VendorReportedEchoSpacing": 0.00051,
  "WipMemBlock": "e8d2e259-d34d-4a1a-8cc4-e50345137f82||Sequence: R016 ve11c/master r/e634e98; Dec 19 2017 11:00:25 by eja",
  "dcmmeta_affine": [
    [-2.499718189239502, -0.021378392353653908, 0.030844086781144142, 118.52346801757812],
    [-0.03247646242380142, 2.261932134628296, -1.0642409324645996, -69.85651397705078],
    [0.018806185573339462, 1.0645216703414917, 2.2619547843933105, -136.62054443359375],
    [0.0, 0.0, 0.0, 1.0]
],
  "dcmmeta_reorient_transform": [
    [0.0, -1.0, 0.0, 95.0],
    [1.0, 0.0, 0.0, 0.0],
    [0.0, 0.0, 1.0, 0.0],
    [0.0, 0.0, 0.0, 1.0]
],
  "dcmmeta_shape": [96, 96, 56, 485],
  "dcmmeta_slice_dim": 2,
  "dcmmeta_version": 0.6,
  "global": {
    "const": {
      "AcquisitionMatrix": [96, 0, 0, 96],
      "AngioFlag": "N",
      "BitsAllocated": 16,
      "BitsStored": 16,
      "BodyPartExamined": "BRAIN",
      "Columns": 768,
      "EchoNumbers": 1,
      "EchoTime": 30.0,
      "EchoTrainLength": 96,
      "FlipAngle": 75.0,
      "HighBit": 15,
      "ImageOrientationPatient": [0.99988732219051, 0.01299058510446, 0.0075224744158, -0.0085513567424, 0.90477280820037, -0.425808689248],
      "ImagePositionPatient": [-949.2147314582, -915.9482776471, 315.86943298694],
      "ImageType": [
        "ORIGINAL",
        "PRIMARY",
        "M",
        "MB",
        "ND",
        "MOSAIC"
],
      "ImagedNucleus": "1H",
      "ImagingFrequency": 123.25997,
      "InPlanePhaseEncodingDirection": "COL",
      "MRAcquisitionType": "2D",
      "MagneticFieldStrength": 3.0,
      "Manufacturer": "SIEMENS",
      "ManufacturerModelName": "Prisma",
      "Modality": "MR",
      "NumberOfAverages": 1.0,
      "NumberOfPhaseEncodingSteps": 96,
      "PercentPhaseFieldOfView": 100.0,
      "PercentSampling": 100.0,
      "PerformedProcedureStepStartTime": "120745.145000",
      "PhotometricInterpretation": "MONOCHROME2",
      "PixelBandwidth": 2265.0,
      "PixelRepresentation": 0,
      "PixelSpacing": [2.5, 2.5],
      "ProtocolName": "EPI_PSAP_iso2.5",
      "RepetitionTime": 2000.0,
      "Rows": 768,
      "SAR": 0.09716975320925,
      "SamplesPerPixel": 1,
      "ScanOptions": "FS",
      "ScanningSequence": "EP",
      "SequenceName": "epfid2d1_96",
      "SequenceVariant": [
        "SK",
        "SS"
],
      "SeriesDescription": "EPI_PSAP_iso2.5",
      "SeriesNumber": 6,
      "SeriesTime": "123424.095000",
      "SliceLocation": -92.411843547929,
      "SliceThickness": 2.5,
      "SmallestImagePixelValue": 0,
      "SoftwareVersions": "syngo MR E11",
      "SpacingBetweenSlices": 2.5000000087483,
      "SpecificCharacterSet": "ISO_IR 100",
      "StudyID": "3",
      "StudyTime": "120745.106000",
      "TransmitCoilName": "Body",
      "VariableFlipAngleFlag": "N",
      "WindowCenterWidthExplanation": "Algo1",
      "dBdt": 0.0},
    "slices": {}
  },
  "time": {
    "samples": {
      "AcquisitionNumber": [1, 2, 3, 4, 5, 6, 7, 8, 9, 10, 11, 12, 13, 14, 15, 16, 17, 18, 19, 20, 21, 22, 23, 24, 25, 26, 27, 28, 29, 30, 31, 32, 33, 34, 35, 36, 37, 38, 39, 40, 41, 42, 43, 44, 45, 46, 47, 48, 49, 50, 51, 52, 53, 54, 55, 56, 57, 58, 59, 60, 61, 62, 63, 64, 65, 66, 67, 68, 69, 70, 71, 72, 73, 74, 75, 76, 77, 78, 79, 80, 81, 82, 83, 84, 85, 86, 87, 88, 89, 90, 91, 92, 93, 94, 95, 96, 97, 98, 99, 100, 101, 102, 103, 104, 105, 106, 107, 108, 109, 110, 111, 112, 113, 114, 115, 116, 117, 118, 119, 120, 121, 122, 123, 124, 125, 126, 127, 128, 129, 130, 131, 132, 133, 134, 135, 136, 137, 138, 139, 140, 141, 142, 143, 144, 145, 146, 147, 148, 149, 150, 151, 152, 153, 154, 155, 156, 157, 158, 159, 160, 161, 162, 163, 164, 165, 166, 167, 168, 169, 170, 171, 172, 173, 174, 175, 176, 177, 178, 179, 180, 181, 182, 183, 184, 185, 186, 187, 188, 189, 190, 191, 192, 193, 194, 195, 196, 197, 198, 199, 200, 201, 202, 203, 204, 205, 206, 207, 208, 209, 210, 211, 212, 213, 214, 215, 216, 217, 218, 219, 220, 221, 222, 223, 224, 225, 226, 227, 228, 229, 230, 231, 232, 233, 234, 235, 236, 237, 238, 239, 240, 241, 242, 243, 244, 245, 246, 247, 248, 249, 250, 251, 252, 253, 254, 255, 256, 257, 258, 259, 260, 261, 262, 263, 264, 265, 266, 267, 268, 269, 270, 271, 272, 273, 274, 275, 276, 277, 278, 279, 280, 281, 282, 283, 284, 285, 286, 287, 288, 289, 290, 291, 292, 293, 294, 295, 296, 297, 298, 299, 300, 301, 302, 303, 304, 305, 306, 307, 308, 309, 310, 311, 312, 313, 314, 315, 316, 317, 318, 319, 320, 321, 322, 323, 324, 325, 326, 327, 328, 329, 330, 331, 332, 333, 334, 335, 336, 337, 338, 339, 340, 341, 342, 343, 344, 345, 346, 347, 348, 349, 350, 351, 352, 353, 354, 355, 356, 357, 358, 359, 360, 361, 362, 363, 364, 365, 366, 367, 368, 369, 370, 371, 372, 373, 374, 375, 376, 377, 378, 379, 380, 381, 382, 383, 384, 385, 386, 387, 388, 389, 390, 391, 392, 393, 394, 395, 396, 397, 398, 399, 400, 401, 402, 403, 404, 405, 406, 407, 408, 409, 410, 411, 412, 413, 414, 415, 416, 417, 418, 419, 420, 421, 422, 423, 424, 425, 426, 427, 428, 429, 430, 431, 432, 433, 434, 435, 436, 437, 438, 439, 440, 441, 442, 443, 444, 445, 446, 447, 448, 449, 450, 451, 452, 453, 454, 455, 456, 457, 458, 459, 460, 461, 462, 463, 464, 465, 466, 467, 468, 469, 470, 471, 472, 473, 474, 475, 476, 477, 478, 479, 480, 481, 482, 483, 484, 485],
      "AcquisitionTime": ["123326.450000", "123328.450000", "123330.450000", "123332.450000", "123334.450000", "123336.450000", "123338.450000", "123340.450000", "123342.450000", "123344.450000", "123346.450000", "123348.450000", "123350.450000", "123352.450000", "123354.450000", "123356.450000", "123358.450000", "123400.450000", "123402.450000", "123404.450000", "123406.450000", "123408.450000", "123410.450000", "123412.450000", "123414.450000", "123416.450000", "123418.450000", "123420.450000", "123422.450000", "123424.450000", "123426.450000", "123428.450000", "123430.450000", "123432.450000", "123434.450000", "123436.450000", "123438.450000", "123440.450000", "123442.450000", "123444.450000", "123446.450000", "123448.450000", "123450.450000", "123452.450000", "123454.450000", "123456.450000", "123458.450000", "123500.450000", "123502.450000", "123504.450000", "123506.450000", "123508.450000", "123510.450000", "123512.450000", "123514.450000", "123516.450000", "123518.450000", "123520.450000", "123522.450000", "123524.450000", "123526.450000", "123528.450000", "123530.450000", "123532.450000", "123534.450000", "123536.450000", "123538.450000", "123540.450000", "123542.450000", "123544.450000", "123546.450000", "123548.450000", "123550.450000", "123552.450000", "123554.450000", "123556.450000", "123558.450000", "123600.450000", "123602.450000", "123604.450000", "123606.450000", "123608.450000", "123610.450000", "123612.450000", "123614.450000", "123616.450000", "123618.450000", "123620.450000", "123622.450000", "123624.450000", "123626.450000", "123628.450000", "123630.450000", "123632.450000", "123634.450000", "123636.450000", "123638.450000", "123640.450000", "123642.450000", "123644.450000", "123646.450000", "123648.450000", "123650.450000", "123652.450000", "123654.450000", "123656.450000", "123658.450000", "123700.450000", "123702.450000", "123704.450000", "123706.450000", "123708.450000", "123710.450000", "123712.450000", "123714.450000", "123716.450000", "123718.450000", "123720.450000", "123722.450000", "123724.450000", "123726.450000", "123728.450000", "123730.450000", "123732.450000", "123734.450000", "123736.450000", "123738.450000", "123740.450000", "123742.450000", "123744.450000", "123746.450000", "123748.450000", "123750.450000", "123752.450000", "123754.450000", "123756.450000", "123758.450000", "123800.450000", "123802.450000", "123804.450000", "123806.450000", "123808.450000", "123810.450000", "123812.450000", "123814.450000", "123816.450000", "123818.450000", "123820.450000", "123822.450000", "123824.450000", "123826.450000", "123828.450000", "123830.450000", "123832.450000", "123834.450000", "123836.450000", "123838.450000", "123840.450000", "123842.450000", "123844.450000", "123846.450000", "123848.450000", "123850.450000", "123852.450000", "123854.450000", "123856.450000", "123858.450000", "123900.450000", "123902.450000", "123904.450000", "123906.450000", "123908.450000", "123910.450000", "123912.450000", "123914.450000", "123916.450000", "123918.450000", "123920.450000", "123922.450000", "123924.450000", "123926.450000", "123928.450000", "123930.450000", "123932.450000", "123934.450000", "123936.450000", "123938.450000", "123940.450000", "123942.450000", "123944.450000", "123946.450000", "123948.450000", "123950.450000", "123952.450000", "123954.450000", "123956.450000", "123958.450000", "124000.450000", "124002.450000", "124004.450000", "124006.450000", "124008.450000", "124010.450000", "124012.450000", "124014.450000", "124016.450000", "124018.450000", "124020.450000", "124022.450000", "124024.450000", "124026.450000", "124028.450000", "124030.450000", "124032.450000", "124034.450000", "124036.450000", "124038.450000", "124040.450000", "124042.450000", "124044.450000", "124046.450000", "124048.450000", "124050.450000", "124052.450000", "124054.450000", "124056.450000", "124058.450000", "124100.450000", "124102.450000", "124104.450000", "124106.450000", "124108.450000", "124110.450000", "124112.450000", "124114.450000", "124116.450000", "124118.450000", "124120.450000", "124122.450000", "124124.450000", "124126.450000", "124128.450000", "124130.450000", "124132.450000", "124134.450000", "124136.450000", "124138.450000", "124140.450000", "124142.450000", "124144.450000", "124146.450000", "124148.450000", "124150.450000", "124152.450000", "124154.450000", "124156.450000", "124158.450000", "124200.450000", "124202.450000", "124204.450000", "124206.450000", "124208.450000", "124210.450000", "124212.450000", "124214.450000", "124216.450000", "124218.450000", "124220.450000", "124222.450000", "124224.450000", "124226.450000", "124228.450000", "124230.450000", "124232.450000", "124234.450000", "124236.450000", "124238.450000", "124240.450000", "124242.450000", "124244.450000", "124246.450000", "124248.450000", "124250.450000", "124252.450000", "124254.450000", "124256.450000", "124258.450000", "124300.450000", "124302.450000", "124304.450000", "124306.450000", "124308.450000", "124310.450000", "124312.450000", "124314.450000", "124316.450000", "124318.450000", "124320.450000", "124322.450000", "124324.450000", "124326.450000", "124328.450000", "124330.450000", "124332.450000", "124334.450000", "124336.450000", "124338.450000", "124340.450000", "124342.450000", "124344.450000", "124346.450000", "124348.450000", "124350.450000", "124352.450000", "124354.450000", "124356.450000", "124358.450000", "124400.450000", "124402.450000", "124404.450000", "124406.450000", "124408.450000", "124410.450000", "124412.450000", "124414.450000", "124416.450000", "124418.450000", "124420.450000", "124422.450000", "124424.450000", "124426.450000", "124428.450000", "124430.450000", "124432.450000", "124434.450000", "124436.450000", "124438.450000", "124440.450000", "124442.450000", "124444.450000", "124446.450000", "124448.450000", "124450.450000", "124452.450000", "124454.450000", "124456.450000", "124458.450000", "124500.450000", "124502.450000", "124504.450000", "124506.450000", "124508.450000", "124510.450000", "124512.450000", "124514.450000", "124516.450000", "124518.450000", "124520.450000", "124522.450000", "124524.450000", "124526.450000", "124528.450000", "124530.450000", "124532.450000", "124534.450000", "124536.450000", "124538.450000", "124540.450000", "124542.450000", "124544.450000", "124546.450000", "124548.450000", "124550.450000", "124552.450000", "124554.450000", "124556.450000", "124558.450000", "124600.450000", "124602.450000", "124604.450000", "124606.450000", "124608.450000", "124610.450000", "124612.450000", "124614.450000", "124616.450000", "124618.450000", "124620.450000", "124622.450000", "124624.450000", "124626.450000", "124628.450000", "124630.450000", "124632.450000", "124634.450000", "124636.450000", "124638.450000", "124640.450000", "124642.450000", "124644.450000", "124646.450000", "124648.450000", "124650.450000", "124652.450000", "124654.450000", "124656.450000", "124658.450000", "124700.450000", "124702.450000", "124704.450000", "124706.450000", "124708.450000", "124710.450000", "124712.450000", "124714.450000", "124716.450000", "124718.450000", "124720.450000", "124722.450000", "124724.450000", "124726.450000", "124728.450000", "124730.450000", "124732.450000", "124734.450000", "124736.450000", "124738.450000", "124740.450000", "124742.450000", "124744.450000", "124746.450000", "124748.450000", "124750.450000", "124752.450000", "124754.450000", "124756.450000", "124758.450000", "124800.450000", "124802.450000", "124804.450000", "124806.450000", "124808.450000", "124810.450000", "124812.450000", "124814.450000", "124816.450000", "124818.450000", "124820.450000", "124822.450000", "124824.450000", "124826.450000", "124828.450000", "124830.450000", "124832.450000", "124834.450000", "124836.450000", "124838.450000", "124840.450000", "124842.450000", "124844.450000", "124846.450000", "124848.450000", "124850.450000", "124852.450000", "124854.450000", "124856.450000", "124858.450000", "124900.450000", "124902.450000", "124904.450000", "124906.450000", "124908.450000", "124910.450000", "124912.450000", "124914.450000", "124916.450000", "124918.450000", "124920.450000", "124922.450000", "124924.450000", "124926.450000", "124928.450000", "124930.450000", "124932.450000", "124934.450000"],
      "ContentTime": ["123424.097000", "123424.100000", "123424.103000", "123424.105000", "123424.112000", "123424.115000", "123424.118000", "123424.120000", "123424.123000", "123424.125000", "123424.128000", "123424.130000", "123424.133000", "123424.136000", "123424.138000", "123424.141000", "123424.143000", "123424.146000", "123424.148000", "123424.151000", "123424.154000", "123424.156000", "123424.159000", "123424.161000", "123424.164000", "123424.166000", "123424.169000", "123424.172000", "123504.064000", "123504.066000", "123504.069000", "123504.072000", "123504.074000", "123504.077000", "123504.079000", "123504.082000", "123504.084000", "123504.087000", "123504.089000", "123504.092000", "123504.095000", "123504.097000", "123504.100000", "123504.102000", "123504.105000", "123504.107000", "123504.110000", "123504.112000", "123544.064000", "123544.066000", "123544.069000", "123544.072000", "123544.074000", "123544.077000", "123544.099000", "123544.102000", "123544.104000", "123544.107000", "123544.109000", "123544.112000", "123544.115000", "123544.117000", "123544.120000", "123544.122000", "123544.125000", "123544.127000", "123544.130000", "123544.132000", "123624.063000", "123624.065000", "123624.068000", "123624.071000", "123624.073000", "123624.076000", "123624.078000", "123624.081000", "123624.083000", "123624.086000", "123624.088000", "123624.091000", "123624.093000", "123624.096000", "123624.099000", "123624.101000", "123624.104000", "123624.106000", "123624.109000", "123624.112000", "123704.064000", "123704.066000", "123704.069000", "123704.072000", "123704.074000", "123704.077000", "123704.079000", "123704.082000", "123704.084000", "123704.087000", "123704.089000", "123704.092000", "123704.094000", "123704.097000", "123704.099000", "123704.102000", "123704.105000", "123704.107000", "123704.110000", "123704.113000", "123744.063000", "123744.066000", "123744.069000", "123744.072000", "123744.074000", "123744.077000", "123744.079000", "123744.082000", "123744.084000", "123744.087000", "123744.089000", "123744.092000", "123744.094000", "123744.097000", "123744.100000", "123744.102000", "123744.105000", "123744.107000", "123744.110000", "123744.112000", "123824.064000", "123824.066000", "123824.069000", "123824.071000", "123824.074000", "123824.076000", "123824.079000", "123824.082000", "123824.084000", "123824.087000", "123824.089000", "123824.092000", "123824.094000", "123824.097000", "123824.099000", "123824.102000", "123824.105000", "123824.107000", "123824.109000", "123824.112000", "123904.064000", "123904.066000", "123904.069000", "123904.072000", "123904.074000", "123904.077000", "123904.079000", "123904.082000", "123904.084000", "123904.087000", "123904.089000", "123904.092000", "123904.095000", "123904.097000", "123904.100000", "123904.102000", "123904.105000", "123904.107000", "123904.110000", "123904.113000", "123944.064000", "123944.066000", "123944.069000", "123944.072000", "123944.074000", "123944.077000", "123944.079000", "123944.082000", "123944.084000", "123944.087000", "123944.090000", "123944.092000", "123944.095000", "123944.097000", "123944.100000", "123944.102000", "123944.105000", "123944.108000", "123944.110000", "123944.113000", "124024.064000", "124024.066000", "124024.069000", "124024.072000", "124024.074000", "124024.077000", "124024.079000", "124024.082000", "124024.084000", "124024.087000", "124024.089000", "124024.092000", "124024.095000", "124024.097000", "124024.100000", "124024.102000", "124024.105000", "124024.107000", "124024.110000", "124024.113000", "124104.062000", "124104.065000", "124104.068000", "124104.070000", "124104.073000", "124104.083000", "124104.086000", "124104.088000", "124104.091000", "124104.093000", "124104.096000", "124104.099000", "124104.101000", "124104.104000", "124104.106000", "124104.109000", "124104.112000", "124104.114000", "124104.117000", "124104.119000", "124144.064000", "124144.066000", "124144.069000", "124144.072000", "124144.074000", "124144.077000", "124144.079000", "124144.082000", "124144.084000", "124144.087000", "124144.089000", "124144.092000", "124144.095000", "124144.098000", "124144.100000", "124144.103000", "124144.106000", "124144.108000", "124144.110000", "124144.133000", "124224.063000", "124224.066000", "124224.069000", "124224.071000", "124224.074000", "124224.076000", "124224.079000", "124224.082000", "124224.084000", "124224.087000", "124224.089000", "124224.092000", "124224.094000", "124224.097000", "124224.100000", "124224.102000", "124224.105000", "124224.107000", "124224.110000", "124224.112000", "124304.064000", "124304.066000", "124304.069000", "124304.072000", "124304.074000", "124304.077000", "124304.080000", "124304.082000", "124304.085000", "124304.087000", "124304.090000", "124304.092000", "124304.095000", "124304.097000", "124304.100000", "124304.103000", "124304.105000", "124304.108000", "124304.110000", "124304.113000", "124344.064000", "124344.066000", "124344.069000", "124344.072000", "124344.074000", "124344.077000", "124344.079000", "124344.082000", "124344.084000", "124344.087000", "124344.089000", "124344.092000", "124344.095000", "124344.097000", "124344.100000", "124344.102000", "124344.105000", "124344.107000", "124344.110000", "124344.112000", "124424.063000", "124424.066000", "124424.069000", "124424.072000", "124424.074000", "124424.077000", "124424.079000", "124424.082000", "124424.084000", "124424.087000", "124424.090000", "124424.092000", "124424.095000", "124424.098000", "124424.100000", "124424.103000", "124424.105000", "124424.108000", "124424.111000", "124424.113000", "124504.063000", "124504.066000", "124504.069000", "124504.072000", "124504.074000", "124504.077000", "124504.079000", "124504.091000", "124504.094000", "124504.096000", "124504.099000", "124504.101000", "124504.104000", "124504.107000", "124504.109000", "124504.112000", "124504.114000", "124504.117000", "124504.120000", "124504.122000", "124544.062000", "124544.065000", "124544.068000", "124544.071000", "124544.073000", "124544.076000", "124544.078000", "124544.081000", "124544.083000", "124544.086000", "124544.089000", "124544.091000", "124544.094000", "124544.096000", "124544.099000", "124544.101000", "124544.104000", "124544.107000", "124544.109000", "124544.112000", "124624.064000", "124624.066000", "124624.069000", "124624.072000", "124624.074000", "124624.077000", "124624.079000", "124624.082000", "124624.084000", "124624.087000", "124624.090000", "124624.092000", "124624.095000", "124624.097000", "124624.100000", "124624.102000", "124624.105000", "124624.108000", "124624.110000", "124624.113000", "124704.064000", "124704.066000", "124704.069000", "124704.072000", "124704.074000", "124704.077000", "124704.079000", "124704.082000", "124704.085000", "124704.087000", "124704.090000", "124704.092000", "124704.095000", "124704.097000", "124704.100000", "124704.102000", "124704.105000", "124704.107000", "124704.110000", "124704.113000", "124744.064000", "124744.066000", "124744.069000", "124744.072000", "124744.074000", "124744.077000", "124744.079000", "124744.082000", "124744.084000", "124744.087000", "124744.090000", "124744.092000", "124744.095000", "124744.097000", "124744.100000", "124744.102000", "124744.105000", "124744.107000", "124744.125000", "124744.128000", "124824.064000", "124824.066000", "124824.069000", "124824.072000", "124824.074000", "124824.077000", "124824.079000", "124824.082000", "124824.084000", "124824.087000", "124824.090000", "124824.092000", "124824.095000", "124824.097000", "124824.100000", "124824.102000", "124824.105000", "124824.107000", "124824.110000", "124824.113000", "124904.063000", "124904.066000", "124904.069000", "124904.072000", "124904.074000", "124904.077000", "124904.080000", "124904.082000", "124904.085000", "124904.087000", "124904.090000", "124904.092000", "124904.095000", "124904.097000", "124904.100000", "124904.103000", "124904.105000", "124904.108000", "124904.110000", "124904.113000", "124937.486000", "124937.490000", "124937.493000", "124937.496000", "124937.499000", "124937.502000", "124937.505000", "124937.508000", "124937.511000", "124937.513000", "124937.516000", "124937.518000", "124937.521000", "124937.524000", "124937.526000", "124937.529000", "124937.531000"],
