{
  "AcquisitionMatrixPE": 96,
  "AcquisitionNumber": 1,
  "AcquisitionTime": "11:10:29.427500",
  "BandwidthPerPixelPhaseEncode": 20.425,
  "BaseResolution": 96,
  "BodyPartExamined": "BRAIN",
  "CoilCombinationMethod": "Sum of Squares",
  "ConsistencyInfo": "N4_VE11C_LATEST_20160120",
  "ConversionSoftware": "dcm2niix",
  "ConversionSoftwareVersion": "v1.0.20211006",
  "DerivedVendorReportedEchoSpacing": 0.000509996,
  "DeviceSerialNumber": "166054",
  "DwellTime": 2.3e-06,
  "EchoTime": 0.03,
  "EchoTrainLength": 96,
  "EffectiveEchoSpacing": 0.000509996,
  "FlipAngle": 75,
  "HeudiconvVersion": "0.11.3+d20220512",
  "ImageComments": "Unaliased MB2/PE2",
  "ImageOrientationPatientDICOM": [0.995966, 0.00903581, 0.0892775, 0.0234713, 0.934047, -0.356377],
  "ImageOrientationText": "Tra>Cor(-21.0)>Sag(5.0)",
  "ImageType": [
    "ORIGINAL",
    "PRIMARY",
    "M",
    "MB",
    "ND",
    "MOSAIC"
],
  "ImagingFrequency": 123.26,
  "InPlanePhaseEncodingDirectionDICOM": "COL",
  "InstitutionAddress": "Street StreetNo,City,District,IL,ZIP",
  "InstitutionName": "Weizmann Institute",
  "InstitutionalDepartmentName": "Department",
  "MRAcquisitionType": "2D",
  "MagneticFieldStrength": 3,
  "Manufacturer": "Siemens",
  "ManufacturersModelName": "Prisma",
  "MatrixCoilMode": "SENSE",
  "Modality": "MR",
  "MultibandAccelerationFactor": 2,
  "PartialFourier": 1,
  "PatientPosition": "HFS",
  "PercentPhaseFOV": 100,
  "PercentSampling": 100,
  "PhaseEncodingDirection": "j-",
  "PhaseEncodingSteps": 96,
  "PhaseResolution": 1,
  "PixelBandwidth": 2265,
  "ProcedureStepDescription": "Weizmann^Sobel",
  "ProtocolName": "EPI_PSAP_iso2.5",
  "PulseSequenceDetails": "%CustomerSeq%\\cmrr_mbep2d_bold",
  "ReceiveCoilActiveElements": "HEA;HEP",
  "ReceiveCoilName": "Head_32",
  "ReconMatrixPE": 96,
  "RepetitionTime": 2,
  "SAR": 0.116542,
  "ScanOptions": "FS",
  "ScanningSequence": "EP",
  "SequenceName": "epfid2d1_96",
  "SequenceVariant": "SK\\SS",
  "SeriesDescription": "EPI_PSAP_iso2.5",
  "SeriesNumber": 6,
  "ShimSetting": [5907, -4066, -1959, 491, 70, -124, 16, 25],
  "SliceThickness": 2.5,
  "SliceTiming": [0, 0.9175, 1.8375, 0.7775, 1.6975, 0.635, 1.555, 0.495, 1.4125, 0.3525, 1.2725, 0.2125, 1.13, 0.07, 0.99, 1.9075, 0.8475, 1.7675, 0.7075, 1.625, 0.565, 1.485, 0.4225, 1.3425, 0.2825, 1.2025, 0.14, 1.06, 0, 0.9175, 1.8375, 0.7775, 1.6975, 0.635, 1.555, 0.495, 1.4125, 0.3525, 1.2725, 0.2125, 1.13, 0.07, 0.99, 1.9075, 0.8475, 1.7675, 0.7075, 1.625, 0.565, 1.485, 0.4225, 1.3425, 0.2825, 1.2025, 0.14, 1.06],
  "SoftwareVersions": "syngo MR E11",
  "SpacingBetweenSlices": 2.5,
  "StationName": "AWP166054",
  "TaskName": "PSAP",
  "TotalReadoutTime": 0.0484496,
  "TxRefAmp": 237.9,
  "VendorReportedEchoSpacing": 0.00051,
  "WipMemBlock": "2b72e1a3-158d-4494-aea7-ccc20c55f3e0||Sequence: R016 ve11c/master r/e634e98; Dec 19 2017 11:00:25 by eja",
  "dcmmeta_affine": [
    [-2.4899144172668457, 0.05867816135287285, 0.21652385592460632, 115.6059341430664],
    [-0.022589528933167458, 2.335118293762207, -0.8925873041152954, -78.40512084960938],
    [0.2231936752796173, 0.8909429311752319, 2.3251678943634033, -127.51415252685547],
    [0.0, 0.0, 0.0, 1.0]
],
  "dcmmeta_reorient_transform": [
    [0.0, -1.0, 0.0, 95.0],
    [1.0, 0.0, 0.0, 0.0],
    [0.0, 0.0, 1.0, 0.0],
    [0.0, 0.0, 0.0, 1.0]
],
  "dcmmeta_shape": [96, 96, 56, 495],
  "dcmmeta_slice_dim": 2,
  "dcmmeta_version": 0.6,
  "global": {
    "const": {
      "AcquisitionMatrix": [96, 0, 0, 96],
      "AngioFlag": "N",
      "BitsAllocated": 16,
      "BitsStored": 16,
      "BodyPartExamined": "BRAIN",
      "Columns": 768,
      "EchoNumbers": 1,
      "EchoTime": 30.0,
      "EchoTrainLength": 96,
      "FlipAngle": 75.0,
      "HighBit": 15,
      "ImageOrientationPatient": [0.99596580610266, 0.00903581164264, 0.0892774729831, 0.02347126457217, 0.93404733085213, -0.3563771646268],
      "ImagePositionPatient": [-977.50749658311, -935.62095952569, 181.48916741784],
      "ImageType": [
        "ORIGINAL",
        "PRIMARY",
        "M",
        "MB",
        "ND",
        "MOSAIC"
],
      "ImagedNucleus": "1H",
      "ImagingFrequency": 123.259998,
      "InPlanePhaseEncodingDirection": "COL",
      "MRAcquisitionType": "2D",
      "MagneticFieldStrength": 3.0,
      "Manufacturer": "SIEMENS",
      "ManufacturerModelName": "Prisma",
      "Modality": "MR",
      "NumberOfAverages": 1.0,
      "NumberOfPhaseEncodingSteps": 96,
      "PercentPhaseFieldOfView": 100.0,
      "PercentSampling": 100.0,
      "PerformedProcedureStepStartTime": "102029.884000",
      "PhotometricInterpretation": "MONOCHROME2",
      "PixelBandwidth": 2265.0,
      "PixelRepresentation": 0,
      "PixelSpacing": [2.5, 2.5],
      "ProtocolName": "EPI_PSAP_iso2.5",
      "RepetitionTime": 2000.0,
      "Rows": 768,
      "SAR": 0.11654177483724,
      "SamplesPerPixel": 1,
      "ScanOptions": "FS",
      "ScanningSequence": "EP",
      "SequenceName": "epfid2d1_96",
      "SequenceVariant": [
        "SK",
        "SS"
],
      "SeriesDescription": "EPI_PSAP_iso2.5",
      "SeriesNumber": 6,
      "SeriesTime": "111111.375000",
      "SliceLocation": -80.590775065679,
      "SliceThickness": 2.5,
      "SmallestImagePixelValue": 0,
      "SoftwareVersions": "syngo MR E11",
      "SpacingBetweenSlices": 2.500000041624,
      "SpecificCharacterSet": "ISO_IR 100",
      "StudyID": "1",
      "StudyTime": "102029.842000",
      "TransmitCoilName": "Body",
      "VariableFlipAngleFlag": "N",
      "WindowCenterWidthExplanation": "Algo1",
      "dBdt": 0.0},
    "slices": {}
  },
  "time": {
    "samples": {
      "AcquisitionNumber": [1, 2, 3, 4, 5, 6, 7, 8, 9, 10, 11, 12, 13, 14, 15, 16, 17, 18, 19, 20, 21, 22, 23, 24, 25, 26, 27, 28, 29, 30, 31, 32, 33, 34, 35, 36, 37, 38, 39, 40, 41, 42, 43, 44, 45, 46, 47, 48, 49, 50, 51, 52, 53, 54, 55, 56, 57, 58, 59, 60, 61, 62, 63, 64, 65, 66, 67, 68, 69, 70, 71, 72, 73, 74, 75, 76, 77, 78, 79, 80, 81, 82, 83, 84, 85, 86, 87, 88, 89, 90, 91, 92, 93, 94, 95, 96, 97, 98, 99, 100, 101, 102, 103, 104, 105, 106, 107, 108, 109, 110, 111, 112, 113, 114, 115, 116, 117, 118, 119, 120, 121, 122, 123, 124, 125, 126, 127, 128, 129, 130, 131, 132, 133, 134, 135, 136, 137, 138, 139, 140, 141, 142, 143, 144, 145, 146, 147, 148, 149, 150, 151, 152, 153, 154, 155, 156, 157, 158, 159, 160, 161, 162, 163, 164, 165, 166, 167, 168, 169, 170, 171, 172, 173, 174, 175, 176, 177, 178, 179, 180, 181, 182, 183, 184, 185, 186, 187, 188, 189, 190, 191, 192, 193, 194, 195, 196, 197, 198, 199, 200, 201, 202, 203, 204, 205, 206, 207, 208, 209, 210, 211, 212, 213, 214, 215, 216, 217, 218, 219, 220, 221, 222, 223, 224, 225, 226, 227, 228, 229, 230, 231, 232, 233, 234, 235, 236, 237, 238, 239, 240, 241, 242, 243, 244, 245, 246, 247, 248, 249, 250, 251, 252, 253, 254, 255, 256, 257, 258, 259, 260, 261, 262, 263, 264, 265, 266, 267, 268, 269, 270, 271, 272, 273, 274, 275, 276, 277, 278, 279, 280, 281, 282, 283, 284, 285, 286, 287, 288, 289, 290, 291, 292, 293, 294, 295, 296, 297, 298, 299, 300, 301, 302, 303, 304, 305, 306, 307, 308, 309, 310, 311, 312, 313, 314, 315, 316, 317, 318, 319, 320, 321, 322, 323, 324, 325, 326, 327, 328, 329, 330, 331, 332, 333, 334, 335, 336, 337, 338, 339, 340, 341, 342, 343, 344, 345, 346, 347, 348, 349, 350, 351, 352, 353, 354, 355, 356, 357, 358, 359, 360, 361, 362, 363, 364, 365, 366, 367, 368, 369, 370, 371, 372, 373, 374, 375, 376, 377, 378, 379, 380, 381, 382, 383, 384, 385, 386, 387, 388, 389, 390, 391, 392, 393, 394, 395, 396, 397, 398, 399, 400, 401, 402, 403, 404, 405, 406, 407, 408, 409, 410, 411, 412, 413, 414, 415, 416, 417, 418, 419, 420, 421, 422, 423, 424, 425, 426, 427, 428, 429, 430, 431, 432, 433, 434, 435, 436, 437, 438, 439, 440, 441, 442, 443, 444, 445, 446, 447, 448, 449, 450, 451, 452, 453, 454, 455, 456, 457, 458, 459, 460, 461, 462, 463, 464, 465, 466, 467, 468, 469, 470, 471, 472, 473, 474, 475, 476, 477, 478, 479, 480, 481, 482, 483, 484, 485, 486, 487, 488, 489, 490, 491, 492, 493, 494, 495],
      "AcquisitionTime": ["111029.427500", "111031.427500", "111033.427500", "111035.427500", "111037.427500", "111039.427500", "111041.427500", "111043.427500", "111045.427500", "111047.427500", "111049.427500", "111051.427500", "111053.427500", "111055.427500", "111057.427500", "111059.427500", "111101.427500", "111103.427500", "111105.427500", "111107.427500", "111109.427500", "111111.427500", "111113.427500", "111115.427500", "111117.427500", "111119.427500", "111121.427500", "111123.427500", "111125.427500", "111127.427500", "111129.427500", "111131.427500", "111133.427500", "111135.427500", "111137.427500", "111139.427500", "111141.427500", "111143.427500", "111145.427500", "111147.427500", "111149.427500", "111151.427500", "111153.427500", "111155.427500", "111157.427500", "111159.427500", "111201.427500", "111203.427500", "111205.427500", "111207.427500", "111209.427500", "111211.427500", "111213.427500", "111215.427500", "111217.427500", "111219.427500", "111221.427500", "111223.427500", "111225.427500", "111227.427500", "111229.427500", "111231.427500", "111233.427500", "111235.427500", "111237.427500", "111239.427500", "111241.427500", "111243.427500", "111245.427500", "111247.427500", "111249.427500", "111251.427500", "111253.427500", "111255.427500", "111257.427500", "111259.427500", "111301.427500", "111303.427500", "111305.427500", "111307.427500", "111309.427500", "111311.427500", "111313.427500", "111315.427500", "111317.427500", "111319.427500", "111321.427500", "111323.427500", "111325.427500", "111327.427500", "111329.427500", "111331.427500", "111333.427500", "111335.427500", "111337.427500", "111339.427500", "111341.427500", "111343.427500", "111345.427500", "111347.427500", "111349.427500", "111351.427500", "111353.427500", "111355.427500", "111357.427500", "111359.427500", "111401.427500", "111403.427500", "111405.427500", "111407.427500", "111409.427500", "111411.427500", "111413.427500", "111415.427500", "111417.427500", "111419.427500", "111421.427500", "111423.427500", "111425.427500", "111427.427500", "111429.427500", "111431.427500", "111433.427500", "111435.427500", "111437.427500", "111439.427500", "111441.427500", "111443.427500", "111445.427500", "111447.427500", "111449.427500", "111451.427500", "111453.427500", "111455.427500", "111457.427500", "111459.427500", "111501.427500", "111503.427500", "111505.427500", "111507.427500", "111509.427500", "111511.427500", "111513.427500", "111515.427500", "111517.427500", "111519.427500", "111521.427500", "111523.427500", "111525.427500", "111527.427500", "111529.427500", "111531.427500", "111533.427500", "111535.427500", "111537.427500", "111539.427500", "111541.427500", "111543.427500", "111545.427500", "111547.427500", "111549.427500", "111551.427500", "111553.427500", "111555.427500", "111557.427500", "111559.427500", "111601.427500", "111603.427500", "111605.427500", "111607.427500", "111609.427500", "111611.427500", "111613.427500", "111615.427500", "111617.427500", "111619.427500", "111621.427500", "111623.427500", "111625.427500", "111627.427500", "111629.427500", "111631.427500", "111633.427500", "111635.427500", "111637.427500", "111639.427500", "111641.427500", "111643.427500", "111645.427500", "111647.427500", "111649.427500", "111651.427500", "111653.427500", "111655.427500", "111657.427500", "111659.427500", "111701.427500", "111703.427500", "111705.427500", "111707.427500", "111709.427500", "111711.427500", "111713.427500", "111715.427500", "111717.427500", "111719.427500", "111721.427500", "111723.427500", "111725.427500", "111727.427500", "111729.427500", "111731.427500", "111733.427500", "111735.427500", "111737.427500", "111739.427500", "111741.427500", "111743.427500", "111745.427500", "111747.427500", "111749.427500", "111751.427500", "111753.427500", "111755.427500", "111757.427500", "111759.427500", "111801.427500", "111803.427500", "111805.427500", "111807.427500", "111809.427500", "111811.427500", "111813.427500", "111815.427500", "111817.427500", "111819.427500", "111821.427500", "111823.427500", "111825.427500", "111827.427500", "111829.427500", "111831.427500", "111833.427500", "111835.427500", "111837.427500", "111839.427500", "111841.427500", "111843.427500", "111845.427500", "111847.427500", "111849.427500", "111851.427500", "111853.427500", "111855.427500", "111857.427500", "111859.427500", "111901.427500", "111903.427500", "111905.427500", "111907.427500", "111909.427500", "111911.427500", "111913.427500", "111915.427500", "111917.427500", "111919.427500", "111921.427500", "111923.427500", "111925.427500", "111927.427500", "111929.427500", "111931.427500", "111933.427500", "111935.427500", "111937.427500", "111939.427500", "111941.427500", "111943.427500", "111945.427500", "111947.427500", "111949.427500", "111951.427500", "111953.427500", "111955.427500", "111957.427500", "111959.427500", "112001.427500", "112003.427500", "112005.427500", "112007.427500", "112009.427500", "112011.427500", "112013.427500", "112015.427500", "112017.427500", "112019.427500", "112021.427500", "112023.427500", "112025.427500", "112027.427500", "112029.427500", "112031.427500", "112033.427500", "112035.427500", "112037.427500", "112039.427500", "112041.427500", "112043.427500", "112045.427500", "112047.427500", "112049.427500", "112051.427500", "112053.427500", "112055.427500", "112057.427500", "112059.427500", "112101.427500", "112103.427500", "112105.427500", "112107.427500", "112109.427500", "112111.427500", "112113.427500", "112115.427500", "112117.427500", "112119.427500", "112121.427500", "112123.427500", "112125.427500", "112127.427500", "112129.427500", "112131.427500", "112133.427500", "112135.427500", "112137.427500", "112139.427500", "112141.427500", "112143.427500", "112145.427500", "112147.427500", "112149.427500", "112151.427500", "112153.427500", "112155.427500", "112157.427500", "112159.427500", "112201.427500", "112203.427500", "112205.427500", "112207.427500", "112209.427500", "112211.427500", "112213.427500", "112215.427500", "112217.427500", "112219.427500", "112221.427500", "112223.427500", "112225.427500", "112227.427500", "112229.427500", "112231.427500", "112233.427500", "112235.427500", "112237.427500", "112239.427500", "112241.427500", "112243.427500", "112245.427500", "112247.427500", "112249.427500", "112251.427500", "112253.427500", "112255.427500", "112257.427500", "112259.427500", "112301.427500", "112303.427500", "112305.427500", "112307.427500", "112309.427500", "112311.427500", "112313.427500", "112315.427500", "112317.427500", "112319.427500", "112321.427500", "112323.427500", "112325.427500", "112327.427500", "112329.427500", "112331.427500", "112333.427500", "112335.427500", "112337.427500", "112339.427500", "112341.427500", "112343.427500", "112345.427500", "112347.427500", "112349.427500", "112351.427500", "112353.427500", "112355.427500", "112357.427500", "112359.427500", "112401.427500", "112403.427500", "112405.427500", "112407.427500", "112409.427500", "112411.427500", "112413.427500", "112415.427500", "112417.427500", "112419.427500", "112421.427500", "112423.427500", "112425.427500", "112427.427500", "112429.427500", "112431.427500", "112433.427500", "112435.427500", "112437.427500", "112439.427500", "112441.427500", "112443.427500", "112445.427500", "112447.427500", "112449.427500", "112451.427500", "112453.427500", "112455.427500", "112457.427500", "112459.427500", "112501.427500", "112503.427500", "112505.427500", "112507.427500", "112509.427500", "112511.427500", "112513.427500", "112515.427500", "112517.427500", "112519.427500", "112521.427500", "112523.427500", "112525.427500", "112527.427500", "112529.427500", "112531.427500", "112533.427500", "112535.427500", "112537.427500", "112539.427500", "112541.427500", "112543.427500", "112545.427500", "112547.427500", "112549.427500", "112551.427500", "112553.427500", "112555.427500", "112557.427500", "112559.427500", "112601.427500", "112603.427500", "112605.427500", "112607.427500", "112609.427500", "112611.427500", "112613.427500", "112615.427500", "112617.427500", "112619.427500", "112621.427500", "112623.427500", "112625.427500", "112627.427500", "112629.427500", "112631.427500", "112633.427500", "112635.427500", "112637.427500", "112639.427500", "112641.427500", "112643.427500", "112645.427500", "112647.427500", "112649.427500", "112651.427500", "112653.427500", "112655.427500", "112657.427500"],
      "ContentTime": ["111111.378000", "111111.381000", "111111.384000", "111111.386000", "111111.389000", "111111.391000", "111111.394000", "111111.396000", "111111.402000", "111111.405000", "111111.410000", "111111.413000", "111111.416000", "111111.418000", "111111.427000", "111111.430000", "111111.432000", "111111.435000", "111111.437000", "111111.440000", "111151.344000", "111151.347000", "111151.350000", "111151.352000", "111151.355000", "111151.358000", "111151.360000", "111151.363000", "111151.365000", "111151.368000", "111151.371000", "111151.373000", "111151.376000", "111151.378000", "111151.381000", "111151.383000", "111151.386000", "111151.388000", "111151.391000", "111151.393000", "111231.345000", "111231.348000", "111231.351000", "111231.353000", "111231.363000", "111231.366000", "111231.368000", "111231.371000", "111231.374000", "111231.376000", "111231.379000", "111231.381000", "111231.384000", "111231.387000", "111231.390000", "111231.393000", "111231.395000", "111231.398000", "111231.400000", "111231.403000", "111311.346000", "111311.348000", "111311.351000", "111311.353000", "111311.356000", "111311.359000", "111311.361000", "111311.364000", "111311.366000", "111311.369000", "111311.371000", "111311.374000", "111311.376000", "111311.379000", "111311.382000", "111311.384000", "111311.386000", "111311.389000", "111311.391000", "111311.394000", "111351.345000", "111351.347000", "111351.350000", "111351.352000", "111351.355000", "111351.358000", "111351.360000", "111351.363000", "111351.365000", "111351.368000", "111351.370000", "111351.373000", "111351.375000", "111351.378000", "111351.380000", "111351.383000", "111351.385000", "111351.388000", "111351.390000", "111351.393000", "111431.345000", "111431.347000", "111431.350000", "111431.352000", "111431.355000", "111431.357000", "111431.360000", "111431.362000", "111431.365000", "111431.368000", "111431.370000", "111431.373000", "111431.375000", "111431.378000", "111431.380000", "111431.383000", "111431.385000", "111431.388000", "111431.390000", "111431.393000", "111511.345000", "111511.348000", "111511.351000", "111511.353000", "111511.356000", "111511.359000", "111511.361000", "111511.364000", "111511.366000", "111511.369000", "111511.372000", "111511.374000", "111511.377000", "111511.379000", "111511.382000", "111511.384000", "111511.387000", "111511.390000", "111511.392000", "111511.395000", "111551.346000", "111551.349000", "111551.352000", "111551.354000", "111551.357000", "111551.359000", "111551.362000", "111551.364000", "111551.367000", "111551.370000", "111551.372000", "111551.375000", "111551.377000", "111551.380000", "111551.382000", "111551.385000", "111551.387000", "111551.390000", "111551.392000", "111551.395000", "111631.344000", "111631.347000", "111631.350000", "111631.352000", "111631.355000", "111631.357000", "111631.360000", "111631.362000", "111631.365000", "111631.367000", "111631.370000", "111631.372000", "111631.375000", "111631.377000", "111631.380000", "111631.382000", "111631.385000", "111631.387000", "111631.390000", "111631.392000", "111711.346000", "111711.348000", "111711.351000", "111711.353000", "111711.356000", "111711.358000", "111711.361000", "111711.364000", "111711.366000", "111711.369000", "111711.371000", "111711.374000", "111711.376000", "111711.379000", "111711.381000", "111711.384000", "111711.386000", "111711.389000", "111711.391000", "111711.394000", "111751.346000", "111751.349000", "111751.351000", "111751.354000", "111751.356000", "111751.359000", "111751.361000", "111751.364000", "111751.366000", "111751.369000", "111751.371000", "111751.374000", "111751.376000", "111751.379000", "111751.381000", "111751.392000", "111751.395000", "111751.397000", "111751.400000", "111751.402000", "111831.345000", "111831.347000", "111831.350000", "111831.353000", "111831.355000", "111831.358000", "111831.360000", "111831.363000", "111831.365000", "111831.368000", "111831.370000", "111831.373000", "111831.375000", "111831.378000", "111831.381000", "111831.383000", "111831.386000", "111831.388000", "111831.391000", "111831.393000", "111911.345000", "111911.347000", "111911.350000", "111911.352000", "111911.355000", "111911.358000", "111911.360000", "111911.363000", "111911.365000", "111911.368000", "111911.370000", "111911.373000", "111911.375000", "111911.378000", "111911.380000", "111911.383000", "111911.385000", "111911.388000", "111911.390000", "111911.393000", "111951.345000", "111951.348000", "111951.351000", "111951.353000", "111951.356000", "111951.358000", "111951.361000", "111951.363000", "111951.366000", "111951.368000", "111951.371000", "111951.373000", "111951.376000", "111951.378000", "111951.381000", "111951.384000", "111951.386000", "111951.389000", "111951.391000", "111951.394000", "112031.345000", "112031.348000", "112031.351000", "112031.353000", "112031.356000", "112031.358000", "112031.361000", "112031.364000", "112031.366000", "112031.369000", "112031.371000", "112031.374000", "112031.376000", "112031.379000", "112031.382000", "112031.384000", "112031.387000", "112031.389000", "112031.392000", "112031.394000", "112111.345000", "112111.347000", "112111.350000", "112111.352000", "112111.355000", "112111.358000", "112111.360000", "112111.363000", "112111.365000", "112111.368000", "112111.370000", "112111.373000", "112111.375000", "112111.378000", "112111.380000", "112111.383000", "112111.385000", "112111.388000", "112111.391000", "112111.393000", "112151.345000", "112151.348000", "112151.351000", "112151.353000", "112151.356000", "112151.358000", "112151.361000", "112151.363000", "112151.366000", "112151.369000", "112151.371000", "112151.374000", "112151.376000", "112151.379000", "112151.381000", "112151.384000", "112151.386000", "112151.389000", "112151.391000", "112151.394000", "112231.346000", "112231.348000", "112231.351000", "112231.354000", "112231.356000", "112231.359000", "112231.361000", "112231.364000", "112231.366000", "112231.369000", "112231.371000", "112231.374000", "112231.376000", "112231.379000", "112231.382000", "112231.384000", "112231.387000", "112231.390000", "112231.392000", "112231.395000", "112311.345000", "112311.348000", "112311.350000", "112311.353000", "112311.355000", "112311.358000", "112311.360000", "112311.363000", "112311.365000", "112311.368000", "112311.370000", "112311.381000", "112311.384000", "112311.386000", "112311.389000", "112311.391000", "112311.394000", "112311.396000", "112311.399000", "112311.402000", "112351.345000", "112351.347000", "112351.350000", "112351.352000", "112351.355000", "112351.358000", "112351.360000", "112351.363000", "112351.365000", "112351.368000", "112351.370000", "112351.373000", "112351.378000", "112351.380000", "112351.383000", "112351.385000", "112351.388000", "112351.391000", "112351.393000", "112351.396000", "112431.346000", "112431.348000", "112431.351000", "112431.354000", "112431.356000", "112431.359000", "112431.361000", "112431.364000", "112431.366000", "112431.369000", "112431.371000", "112431.374000", "112431.376000", "112431.379000", "112431.381000", "112431.384000", "112431.386000", "112431.389000", "112431.392000", "112431.394000", "112511.345000", "112511.348000", "112511.351000", "112511.353000", "112511.356000", "112511.359000", "112511.361000", "112511.364000", "112511.366000", "112511.369000", "112511.371000", "112511.374000", "112511.377000", "112511.379000", "112511.382000", "112511.384000", "112511.387000", "112511.390000", "112511.392000", "112511.395000", "112551.344000", "112551.347000", "112551.350000", "112551.353000", "112551.355000", "112551.358000", "112551.360000", "112551.363000", "112551.365000", "112551.368000", "112551.370000", "112551.373000", "112551.375000", "112551.378000", "112551.387000", "112551.390000", "112551.392000", "112551.395000", "112551.397000", "112551.400000", "112631.346000", "112631.348000", "112631.351000", "112631.354000", "112631.356000", "112631.359000", "112631.361000", "112631.364000", "112631.366000", "112631.369000", "112631.371000", "112631.374000", "112631.376000", "112631.379000", "112631.382000", "112631.384000", "112631.387000", "112631.389000", "112631.392000", "112631.395000", "112701.261000", "112701.264000", "112701.266000", "112701.269000", "112701.271000", "112701.274000", "112701.276000", "112701.279000", "112701.281000", "112701.284000", "112701.286000", "112701.289000", "112701.291000", "112701.294000", "112701.296000"],
