{
  "AcquisitionMatrixPE": 96,
  "AcquisitionNumber": 1,
  "AcquisitionTime": "13:16:24.237500",
  "BandwidthPerPixelPhaseEncode": 20.425,
  "BaseResolution": 96,
  "BodyPartExamined": "BRAIN",
  "CoilCombinationMethod": "Sum of Squares",
  "ConsistencyInfo": "N4_VE11C_LATEST_20160120",
  "ConversionSoftware": "dcm2niix",
  "ConversionSoftwareVersion": "v1.0.20211006",
  "DerivedVendorReportedEchoSpacing": 0.000509996,
  "DeviceSerialNumber": "166054",
  "DwellTime": 2.3e-06,
  "EchoTime": 0.03,
  "EchoTrainLength": 96,
  "EffectiveEchoSpacing": 0.000509996,
  "FlipAngle": 75,
  "HeudiconvVersion": "0.11.3+d20220512",
  "ImageComments": "Unaliased MB2/PE2",
  "ImageOrientationPatientDICOM": [0.996197, 0.0168491, -0.0854889, -0.0570915, 0.867399, -0.494327],
  "ImageOrientationText": "Tra>Cor(-29.9)>Sag(-3.8)",
  "ImageType": [
    "ORIGINAL",
    "PRIMARY",
    "M",
    "MB",
    "ND",
    "MOSAIC"
],
  "ImagingFrequency": 123.26,
  "InPlanePhaseEncodingDirectionDICOM": "COL",
  "InstitutionAddress": "Street StreetNo,City,District,IL,ZIP",
  "InstitutionName": "Weizmann Institute",
  "InstitutionalDepartmentName": "Department",
  "MRAcquisitionType": "2D",
  "MagneticFieldStrength": 3,
  "Manufacturer": "Siemens",
  "ManufacturersModelName": "Prisma",
  "MatrixCoilMode": "SENSE",
  "Modality": "MR",
  "MultibandAccelerationFactor": 2,
  "PartialFourier": 1,
  "PatientPosition": "HFS",
  "PercentPhaseFOV": 100,
  "PercentSampling": 100,
  "PhaseEncodingDirection": "j-",
  "PhaseEncodingSteps": 96,
  "PhaseResolution": 1,
  "PixelBandwidth": 2265,
  "ProcedureStepDescription": "Weizmann^Sobel",
  "ProtocolName": "EPI_PSAP_iso2.5",
  "PulseSequenceDetails": "%CustomerSeq%\\cmrr_mbep2d_bold",
  "ReceiveCoilActiveElements": "HEA;HEP",
  "ReceiveCoilName": "Head_32",
  "ReconMatrixPE": 96,
  "RepetitionTime": 2,
  "SAR": 0.104268,
  "ScanOptions": "FS",
  "ScanningSequence": "EP",
  "SequenceName": "epfid2d1_96",
  "SequenceVariant": "SK\\SS",
  "SeriesDescription": "EPI_PSAP_iso2.5",
  "SeriesNumber": 6,
  "ShimSetting": [5896, -3984, -1930, 395, 37, -50, -122, 27],
  "SliceThickness": 2.5,
  "SliceTiming": [0, 0.92, 1.84, 0.7775, 1.6975, 0.6375, 1.5575, 0.495, 1.415, 0.355, 1.2725, 0.2125, 1.1325, 0.0725, 0.99, 1.91, 0.85, 1.7675, 0.7075, 1.6275, 0.5675, 1.485, 0.425, 1.345, 0.2825, 1.2025, 0.1425, 1.0625, 0, 0.92, 1.84, 0.7775, 1.6975, 0.6375, 1.5575, 0.495, 1.415, 0.355, 1.2725, 0.2125, 1.1325, 0.0725, 0.99, 1.91, 0.85, 1.7675, 0.7075, 1.6275, 0.5675, 1.485, 0.425, 1.345, 0.2825, 1.2025, 0.1425, 1.0625],
  "SoftwareVersions": "syngo MR E11",
  "SpacingBetweenSlices": 2.5,
  "StationName": "AWP166054",
  "TaskName": "PSAP",
  "TotalReadoutTime": 0.0484496,
  "TxRefAmp": 265.4,
  "VendorReportedEchoSpacing": 0.00051,
  "WipMemBlock": "c5de4346-455f-4f9c-94d0-2e5be234d4b5||Sequence: R016 ve11c/master r/e634e98; Dec 19 2017 11:00:25 by eja",
  "dcmmeta_affine": [
    [-2.4904916286468506, -0.14272864162921906, -0.16456006467342377, 127.14160919189453],
    [-0.04212268814444542, 2.1684980392456055, -1.2433186769485474, -60.87084197998047],
    [-0.21372215449810028, 1.235817313194275, 2.1626553535461426, -144.4497833251953],
    [0.0, 0.0, 0.0, 1.0]
],
  "dcmmeta_reorient_transform": [
    [0.0, -1.0, 0.0, 95.0],
    [1.0, 0.0, 0.0, 0.0],
    [0.0, 0.0, 1.0, 0.0],
    [0.0, 0.0, 0.0, 1.0]
],
  "dcmmeta_shape": [96, 96, 56, 499],
  "dcmmeta_slice_dim": 2,
  "dcmmeta_version": 0.6,
  "global": {
    "const": {
      "AcquisitionMatrix": [96, 0, 0, 96],
      "AngioFlag": "N",
      "BitsAllocated": 16,
      "BitsStored": 16,
      "BodyPartExamined": "BRAIN",
      "Columns": 768,
      "EchoNumbers": 1,
      "EchoTime": 30.0,
      "EchoTrainLength": 96,
      "FlipAngle": 75.0,
      "HighBit": 15,
      "ImageOrientationPatient": [0.99619664876204, 0.01684907523333, -0.085488862778, -0.0570914591271, 0.86739926064712, -0.4943269039043],
      "ImagePositionPatient": [-902.43075070965, -887.9050862526, 459.99809786798],
      "ImageType": [
        "ORIGINAL",
        "PRIMARY",
        "M",
        "MB",
        "ND",
        "MOSAIC"
],
      "ImagedNucleus": "1H",
      "ImagingFrequency": 123.260272,
      "InPlanePhaseEncodingDirection": "COL",
      "MRAcquisitionType": "2D",
      "MagneticFieldStrength": 3.0,
      "Manufacturer": "SIEMENS",
      "ManufacturerModelName": "Prisma",
      "Modality": "MR",
      "NumberOfAverages": 1.0,
      "NumberOfPhaseEncodingSteps": 96,
      "PercentPhaseFieldOfView": 100.0,
      "PercentSampling": 100.0,
      "PerformedProcedureStepStartTime": "125305.630000",
      "PhotometricInterpretation": "MONOCHROME2",
      "PixelBandwidth": 2265.0,
      "PixelRepresentation": 0,
      "PixelSpacing": [2.5, 2.5],
      "ProtocolName": "EPI_PSAP_iso2.5",
      "RepetitionTime": 2000.0,
      "Rows": 768,
      "SAR": 0.10426821126739,
      "SamplesPerPixel": 1,
      "ScanOptions": "FS",
      "ScanningSequence": "EP",
      "SequenceName": "epfid2d1_96",
      "SequenceVariant": [
        "SK",
        "SS"
],
      "SeriesDescription": "EPI_PSAP_iso2.5",
      "SeriesNumber": 6,
      "SeriesTime": "131722.956000",
      "SliceLocation": -103.05427646352,
      "SliceThickness": 2.5,
      "SmallestImagePixelValue": 0,
      "SoftwareVersions": "syngo MR E11",
      "SpacingBetweenSlices": 2.4999999797256,
      "SpecificCharacterSet": "ISO_IR 100",
      "StudyID": "3",
      "StudyTime": "125305.565000",
      "TransmitCoilName": "Body",
      "VariableFlipAngleFlag": "N",
      "WindowCenterWidthExplanation": "Algo1",
      "dBdt": 0.0},
    "slices": {}
  },
  "time": {
    "samples": {
      "AcquisitionNumber": [1, 2, 3, 4, 5, 6, 7, 8, 9, 10, 11, 12, 13, 14, 15, 16, 17, 18, 19, 20, 21, 22, 23, 24, 25, 26, 27, 28, 29, 30, 31, 32, 33, 34, 35, 36, 37, 38, 39, 40, 41, 42, 43, 44, 45, 46, 47, 48, 49, 50, 51, 52, 53, 54, 55, 56, 57, 58, 59, 60, 61, 62, 63, 64, 65, 66, 67, 68, 69, 70, 71, 72, 73, 74, 75, 76, 77, 78, 79, 80, 81, 82, 83, 84, 85, 86, 87, 88, 89, 90, 91, 92, 93, 94, 95, 96, 97, 98, 99, 100, 101, 102, 103, 104, 105, 106, 107, 108, 109, 110, 111, 112, 113, 114, 115, 116, 117, 118, 119, 120, 121, 122, 123, 124, 125, 126, 127, 128, 129, 130, 131, 132, 133, 134, 135, 136, 137, 138, 139, 140, 141, 142, 143, 144, 145, 146, 147, 148, 149, 150, 151, 152, 153, 154, 155, 156, 157, 158, 159, 160, 161, 162, 163, 164, 165, 166, 167, 168, 169, 170, 171, 172, 173, 174, 175, 176, 177, 178, 179, 180, 181, 182, 183, 184, 185, 186, 187, 188, 189, 190, 191, 192, 193, 194, 195, 196, 197, 198, 199, 200, 201, 202, 203, 204, 205, 206, 207, 208, 209, 210, 211, 212, 213, 214, 215, 216, 217, 218, 219, 220, 221, 222, 223, 224, 225, 226, 227, 228, 229, 230, 231, 232, 233, 234, 235, 236, 237, 238, 239, 240, 241, 242, 243, 244, 245, 246, 247, 248, 249, 250, 251, 252, 253, 254, 255, 256, 257, 258, 259, 260, 261, 262, 263, 264, 265, 266, 267, 268, 269, 270, 271, 272, 273, 274, 275, 276, 277, 278, 279, 280, 281, 282, 283, 284, 285, 286, 287, 288, 289, 290, 291, 292, 293, 294, 295, 296, 297, 298, 299, 300, 301, 302, 303, 304, 305, 306, 307, 308, 309, 310, 311, 312, 313, 314, 315, 316, 317, 318, 319, 320, 321, 322, 323, 324, 325, 326, 327, 328, 329, 330, 331, 332, 333, 334, 335, 336, 337, 338, 339, 340, 341, 342, 343, 344, 345, 346, 347, 348, 349, 350, 351, 352, 353, 354, 355, 356, 357, 358, 359, 360, 361, 362, 363, 364, 365, 366, 367, 368, 369, 370, 371, 372, 373, 374, 375, 376, 377, 378, 379, 380, 381, 382, 383, 384, 385, 386, 387, 388, 389, 390, 391, 392, 393, 394, 395, 396, 397, 398, 399, 400, 401, 402, 403, 404, 405, 406, 407, 408, 409, 410, 411, 412, 413, 414, 415, 416, 417, 418, 419, 420, 421, 422, 423, 424, 425, 426, 427, 428, 429, 430, 431, 432, 433, 434, 435, 436, 437, 438, 439, 440, 441, 442, 443, 444, 445, 446, 447, 448, 449, 450, 451, 452, 453, 454, 455, 456, 457, 458, 459, 460, 461, 462, 463, 464, 465, 466, 467, 468, 469, 470, 471, 472, 473, 474, 475, 476, 477, 478, 479, 480, 481, 482, 483, 484, 485, 486, 487, 488, 489, 490, 491, 492, 493, 494, 495, 496, 497, 498, 499],
      "AcquisitionTime": ["131624.237500", "131626.237500", "131628.237500", "131630.237500", "131632.237500", "131634.237500", "131636.237500", "131638.237500", "131640.237500", "131642.237500", "131644.237500", "131646.237500", "131648.237500", "131650.237500", "131652.237500", "131654.237500", "131656.237500", "131658.237500", "131700.237500", "131702.237500", "131704.237500", "131706.237500", "131708.237500", "131710.237500", "131712.237500", "131714.237500", "131716.237500", "131718.237500", "131720.237500", "131722.237500", "131724.237500", "131726.237500", "131728.237500", "131730.237500", "131732.237500", "131734.237500", "131736.237500", "131738.237500", "131740.237500", "131742.237500", "131744.237500", "131746.237500", "131748.237500", "131750.237500", "131752.237500", "131754.237500", "131756.237500", "131758.237500", "131800.237500", "131802.237500", "131804.237500", "131806.237500", "131808.237500", "131810.237500", "131812.237500", "131814.237500", "131816.237500", "131818.237500", "131820.237500", "131822.237500", "131824.237500", "131826.237500", "131828.237500", "131830.237500", "131832.237500", "131834.237500", "131836.237500", "131838.237500", "131840.237500", "131842.237500", "131844.237500", "131846.237500", "131848.237500", "131850.237500", "131852.237500", "131854.237500", "131856.237500", "131858.237500", "131900.237500", "131902.237500", "131904.237500", "131906.237500", "131908.237500", "131910.237500", "131912.237500", "131914.237500", "131916.237500", "131918.237500", "131920.237500", "131922.237500", "131924.237500", "131926.237500", "131928.237500", "131930.237500", "131932.237500", "131934.237500", "131936.237500", "131938.237500", "131940.237500", "131942.237500", "131944.237500", "131946.237500", "131948.237500", "131950.237500", "131952.237500", "131954.237500", "131956.237500", "131958.237500", "132000.237500", "132002.237500", "132004.237500", "132006.237500", "132008.237500", "132010.237500", "132012.237500", "132014.237500", "132016.237500", "132018.237500", "132020.237500", "132022.237500", "132024.237500", "132026.237500", "132028.237500", "132030.237500", "132032.237500", "132034.237500", "132036.237500", "132038.237500", "132040.237500", "132042.237500", "132044.237500", "132046.237500", "132048.237500", "132050.237500", "132052.237500", "132054.237500", "132056.237500", "132058.237500", "132100.237500", "132102.237500", "132104.237500", "132106.237500", "132108.237500", "132110.237500", "132112.237500", "132114.237500", "132116.237500", "132118.237500", "132120.237500", "132122.237500", "132124.237500", "132126.237500", "132128.237500", "132130.237500", "132132.237500", "132134.237500", "132136.237500", "132138.237500", "132140.237500", "132142.237500", "132144.237500", "132146.237500", "132148.237500", "132150.237500", "132152.237500", "132154.237500", "132156.237500", "132158.237500", "132200.237500", "132202.237500", "132204.237500", "132206.237500", "132208.237500", "132210.237500", "132212.237500", "132214.237500", "132216.237500", "132218.237500", "132220.237500", "132222.237500", "132224.237500", "132226.237500", "132228.237500", "132230.237500", "132232.237500", "132234.237500", "132236.237500", "132238.237500", "132240.237500", "132242.237500", "132244.237500", "132246.237500", "132248.237500", "132250.237500", "132252.237500", "132254.237500", "132256.237500", "132258.237500", "132300.237500", "132302.237500", "132304.237500", "132306.237500", "132308.237500", "132310.237500", "132312.237500", "132314.237500", "132316.237500", "132318.237500", "132320.237500", "132322.237500", "132324.237500", "132326.237500", "132328.237500", "132330.237500", "132332.237500", "132334.237500", "132336.237500", "132338.237500", "132340.237500", "132342.237500", "132344.237500", "132346.237500", "132348.237500", "132350.237500", "132352.237500", "132354.237500", "132356.237500", "132358.237500", "132400.237500", "132402.237500", "132404.237500", "132406.237500", "132408.237500", "132410.237500", "132412.237500", "132414.237500", "132416.237500", "132418.237500", "132420.237500", "132422.237500", "132424.237500", "132426.237500", "132428.237500", "132430.237500", "132432.237500", "132434.237500", "132436.237500", "132438.237500", "132440.237500", "132442.237500", "132444.237500", "132446.237500", "132448.237500", "132450.237500", "132452.237500", "132454.237500", "132456.237500", "132458.237500", "132500.237500", "132502.237500", "132504.237500", "132506.237500", "132508.237500", "132510.237500", "132512.237500", "132514.237500", "132516.237500", "132518.237500", "132520.237500", "132522.237500", "132524.237500", "132526.237500", "132528.237500", "132530.237500", "132532.237500", "132534.237500", "132536.237500", "132538.237500", "132540.237500", "132542.237500", "132544.237500", "132546.237500", "132548.237500", "132550.237500", "132552.237500", "132554.237500", "132556.237500", "132558.237500", "132600.237500", "132602.237500", "132604.237500", "132606.237500", "132608.237500", "132610.237500", "132612.237500", "132614.237500", "132616.237500", "132618.237500", "132620.237500", "132622.237500", "132624.237500", "132626.237500", "132628.237500", "132630.237500", "132632.237500", "132634.237500", "132636.237500", "132638.237500", "132640.237500", "132642.237500", "132644.237500", "132646.237500", "132648.237500", "132650.237500", "132652.237500", "132654.237500", "132656.237500", "132658.237500", "132700.237500", "132702.237500", "132704.237500", "132706.237500", "132708.237500", "132710.237500", "132712.237500", "132714.237500", "132716.237500", "132718.237500", "132720.237500", "132722.237500", "132724.237500", "132726.237500", "132728.237500", "132730.237500", "132732.237500", "132734.237500", "132736.237500", "132738.237500", "132740.237500", "132742.237500", "132744.237500", "132746.237500", "132748.237500", "132750.237500", "132752.237500", "132754.237500", "132756.237500", "132758.237500", "132800.237500", "132802.237500", "132804.237500", "132806.237500", "132808.237500", "132810.237500", "132812.237500", "132814.237500", "132816.237500", "132818.237500", "132820.237500", "132822.237500", "132824.237500", "132826.237500", "132828.237500", "132830.237500", "132832.237500", "132834.237500", "132836.237500", "132838.237500", "132840.237500", "132842.237500", "132844.237500", "132846.237500", "132848.237500", "132850.237500", "132852.237500", "132854.237500", "132856.237500", "132858.237500", "132900.237500", "132902.237500", "132904.237500", "132906.237500", "132908.237500", "132910.237500", "132912.237500", "132914.237500", "132916.237500", "132918.237500", "132920.237500", "132922.237500", "132924.237500", "132926.237500", "132928.237500", "132930.237500", "132932.237500", "132934.237500", "132936.237500", "132938.237500", "132940.237500", "132942.237500", "132944.237500", "132946.237500", "132948.237500", "132950.237500", "132952.237500", "132954.237500", "132956.237500", "132958.237500", "133000.237500", "133002.237500", "133004.237500", "133006.237500", "133008.237500", "133010.237500", "133012.237500", "133014.237500", "133016.237500", "133018.237500", "133020.237500", "133022.237500", "133024.237500", "133026.237500", "133028.237500", "133030.237500", "133032.237500", "133034.237500", "133036.237500", "133038.237500", "133040.237500", "133042.237500", "133044.237500", "133046.237500", "133048.237500", "133050.237500", "133052.237500", "133054.237500", "133056.237500", "133058.237500", "133100.237500", "133102.237500", "133104.237500", "133106.237500", "133108.237500", "133110.237500", "133112.237500", "133114.237500", "133116.237500", "133118.237500", "133120.237500", "133122.237500", "133124.237500", "133126.237500", "133128.237500", "133130.237500", "133132.237500", "133134.237500", "133136.237500", "133138.237500", "133140.237500", "133142.237500", "133144.237500", "133146.237500", "133148.237500", "133150.237500", "133152.237500", "133154.237500", "133156.237500", "133158.237500", "133200.237500", "133202.237500", "133204.237500", "133206.237500", "133208.237500", "133210.237500", "133212.237500", "133214.237500", "133216.237500", "133218.237500", "133220.237500", "133222.237500", "133224.237500", "133226.237500", "133228.237500", "133230.237500", "133232.237500", "133234.237500", "133236.237500", "133238.237500", "133240.237500", "133242.237500", "133244.237500", "133246.237500", "133248.237500", "133250.237500", "133252.237500", "133254.237500", "133256.237500", "133258.237500", "133300.237500"],
      "ContentTime": ["131722.958000", "131722.961000", "131722.964000", "131722.967000", "131722.969000", "131722.972000", "131722.975000", "131722.977000", "131722.980000", "131722.982000", "131722.985000", "131722.988000", "131722.990000", "131722.993000", "131722.995000", "131722.998000", "131723.002000", "131723.004000", "131723.007000", "131723.010000", "131723.012000", "131723.015000", "131723.018000", "131723.022000", "131723.025000", "131723.028000", "131723.039000", "131723.042000", "131802.907000", "131802.910000", "131802.913000", "131802.915000", "131802.918000", "131802.921000", "131802.925000", "131802.927000", "131802.930000", "131802.932000", "131802.935000", "131802.938000", "131802.948000", "131802.951000", "131802.954000", "131802.956000", "131802.959000", "131802.961000", "131802.964000", "131802.966000", "131842.907000", "131842.910000", "131842.913000", "131842.916000", "131842.919000", "131842.921000", "131842.926000", "131842.929000", "131842.931000", "131842.934000", "131842.936000", "131842.939000", "131842.941000", "131842.944000", "131842.947000", "131842.950000", "131842.952000", "131842.955000", "131842.957000", "131842.960000", "131922.908000", "131922.910000", "131922.913000", "131922.916000", "131922.918000", "131922.921000", "131922.924000", "131922.927000", "131922.929000", "131922.932000", "131922.939000", "131922.942000", "131922.944000", "131922.947000", "131922.950000", "131922.952000", "131922.954000", "131922.957000", "131922.960000", "131922.962000", "132002.907000", "132002.910000", "132002.913000", "132002.915000", "132002.924000", "132002.927000", "132002.929000", "132002.932000", "132002.934000", "132002.937000", "132002.939000", "132002.942000", "132002.952000", "132002.954000", "132002.957000", "132002.959000", "132002.962000", "132002.965000", "132002.968000", "132002.972000", "132042.907000", "132042.910000", "132042.913000", "132042.916000", "132042.918000", "132042.921000", "132042.923000", "132042.928000", "132042.930000", "132042.933000", "132042.935000", "132042.938000", "132042.941000", "132042.943000", "132042.946000", "132042.948000", "132042.951000", "132042.953000", "132042.956000", "132042.959000", "132122.908000", "132122.910000", "132122.913000", "132122.915000", "132122.918000", "132122.921000", "132122.925000", "132122.928000", "132122.930000", "132122.933000", "132122.936000", "132122.939000", "132122.941000", "132122.944000", "132122.946000", "132122.949000", "132122.951000", "132122.954000", "132122.956000", "132122.959000", "132202.908000", "132202.910000", "132202.913000", "132202.916000", "132202.919000", "132202.921000", "132202.924000", "132202.927000", "132202.930000", "132202.932000", "132202.935000", "132202.937000", "132202.940000", "132202.942000", "132202.945000", "132202.948000", "132202.950000", "132202.953000", "132202.956000", "132202.958000", "132242.907000", "132242.910000", "132242.913000", "132242.916000", "132242.919000", "132242.921000", "132242.924000", "132242.927000", "132242.929000", "132242.932000", "132242.935000", "132242.937000", "132242.940000", "132242.942000", "132242.945000", "132242.947000", "132242.950000", "132242.953000", "132242.955000", "132242.958000", "132322.908000", "132322.910000", "132322.913000", "132322.916000", "132322.919000", "132322.921000", "132322.924000", "132322.927000", "132322.930000", "132322.932000", "132322.935000", "132322.937000", "132322.940000", "132322.942000", "132322.945000", "132322.948000", "132322.950000", "132322.953000", "132322.956000", "132322.958000", "132402.907000", "132402.910000", "132402.913000", "132402.915000", "132402.918000", "132402.921000", "132402.923000", "132402.926000", "132402.928000", "132402.931000", "132402.933000", "132402.936000", "132402.939000", "132402.941000", "132402.944000", "132402.946000", "132402.949000", "132402.951000", "132402.954000", "132402.956000", "132442.907000", "132442.910000", "132442.913000", "132442.915000", "132442.918000", "132442.932000", "132442.935000", "132442.937000", "132442.940000", "132442.942000", "132442.945000", "132442.948000", "132442.950000", "132442.953000", "132442.956000", "132442.958000", "132442.961000", "132442.963000", "132442.966000", "132442.968000", "132522.907000", "132522.910000", "132522.914000", "132522.916000", "132522.919000", "132522.921000", "132522.924000", "132522.929000", "132522.932000", "132522.934000", "132522.937000", "132522.940000", "132522.951000", "132522.953000", "132522.956000", "132522.958000", "132522.961000", "132522.964000", "132522.966000", "132522.969000", "132542.908000", "132542.911000", "132542.913000", "132542.916000", "132542.919000", "132542.922000", "132542.925000", "132542.928000", "132542.931000", "132542.933000", "132622.907000", "132622.910000", "132622.913000", "132622.915000", "132622.918000", "132622.921000", "132622.923000", "132622.926000", "132622.929000", "132622.931000", "132622.934000", "132622.937000", "132622.939000", "132622.942000", "132622.944000", "132622.947000", "132622.950000", "132622.952000", "132622.955000", "132622.957000", "132702.907000", "132702.910000", "132702.913000", "132702.915000", "132702.918000", "132702.923000", "132702.925000", "132702.928000", "132702.931000", "132702.933000", "132702.936000", "132702.939000", "132702.941000", "132702.944000", "132702.947000", "132702.949000", "132702.952000", "132702.954000", "132702.957000", "132702.960000", "132742.908000", "132742.910000", "132742.913000", "132742.916000", "132742.918000", "132742.921000", "132742.924000", "132742.926000", "132742.929000", "132742.932000", "132742.934000", "132742.937000", "132742.940000", "132742.942000", "132742.945000", "132742.947000", "132742.950000", "132742.953000", "132742.955000", "132742.958000", "132822.908000", "132822.910000", "132822.913000", "132822.916000", "132822.919000", "132822.924000", "132822.926000", "132822.929000", "132822.932000", "132822.934000", "132822.937000", "132822.939000", "132822.942000", "132822.945000", "132822.947000", "132822.950000", "132822.952000", "132822.955000", "132822.958000", "132822.960000", "132902.907000", "132902.911000", "132902.914000", "132902.916000", "132902.919000", "132902.923000", "132902.926000", "132902.928000", "132902.931000", "132902.934000", "132902.936000", "132902.939000", "132902.941000", "132902.944000", "132902.947000", "132902.949000", "132902.952000", "132902.954000", "132902.957000", "132902.959000", "132942.906000", "132942.909000", "132942.912000", "132942.915000", "132942.918000", "132942.921000", "132942.924000", "132942.926000", "132942.929000", "132942.932000", "132942.934000", "132942.937000", "132942.940000", "132942.942000", "132942.945000", "132942.947000", "132942.950000", "132942.952000", "132942.955000", "132942.957000", "133022.908000", "133022.911000", "133022.913000", "133022.916000", "133022.918000", "133022.921000", "133022.924000", "133022.927000", "133022.929000", "133022.932000", "133022.934000", "133022.937000", "133022.940000", "133022.942000", "133022.945000", "133022.962000", "133022.965000", "133022.968000", "133022.970000", "133022.973000", "133102.908000", "133102.910000", "133102.913000", "133102.916000", "133102.918000", "133102.921000", "133102.923000", "133102.926000", "133102.931000", "133102.933000", "133102.936000", "133102.939000", "133102.941000", "133102.944000", "133102.947000", "133102.949000", "133102.952000", "133102.954000", "133102.957000", "133102.959000", "133142.907000", "133142.910000", "133142.913000", "133142.915000", "133142.918000", "133142.923000", "133142.926000", "133142.928000", "133142.931000", "133142.934000", "133142.936000", "133142.939000", "133142.941000", "133142.944000", "133142.947000", "133142.949000", "133142.952000", "133142.954000", "133142.957000", "133142.960000", "133222.907000", "133222.910000", "133222.913000", "133222.916000", "133222.918000", "133222.921000", "133222.924000", "133222.926000", "133222.929000", "133222.931000", "133222.934000", "133222.937000", "133222.939000", "133222.942000", "133222.944000", "133222.947000", "133222.949000", "133222.952000", "133222.955000", "133222.957000", "133302.908000", "133302.912000", "133302.915000", "133302.920000", "133302.923000", "133302.926000", "133302.931000", "133302.935000", "133302.938000", "133302.941000", "133302.945000", "133302.949000", "133302.956000", "133302.960000", "133302.963000", "133302.967000", "133302.970000", "133302.973000", "133302.976000", "133302.979000", "133303.027000"],
