{
  "AcquisitionMatrixPE": 96,
  "AcquisitionNumber": 1,
  "AcquisitionTime": "13:50:57.352500",
  "BandwidthPerPixelPhaseEncode": 20.425,
  "BaseResolution": 96,
  "BodyPartExamined": "BRAIN",
  "CoilCombinationMethod": "Sum of Squares",
  "ConsistencyInfo": "N4_VE11C_LATEST_20160120",
  "ConversionSoftware": "dcm2niix",
  "ConversionSoftwareVersion": "v1.0.20211006",
  "DerivedVendorReportedEchoSpacing": 0.000509996,
  "DeviceSerialNumber": "166054",
  "DwellTime": 2.3e-06,
  "EchoTime": 0.03,
  "EchoTrainLength": 96,
  "EffectiveEchoSpacing": 0.000509996,
  "FlipAngle": 75,
  "HeudiconvVersion": "0.11.3+d20220512",
  "ImageComments": "Unaliased MB2/PE2",
  "ImageOrientationPatientDICOM": [0.998754, 0.0492951, 0.00773019, -0.0401141, 0.88537, -0.463154],
  "ImageOrientationText": "Tra>Cor(-27.5)>Sag(1.7)",
  "ImageType": [
    "ORIGINAL",
    "PRIMARY",
    "M",
    "MB",
    "ND",
    "MOSAIC"
],
  "ImagingFrequency": 123.26,
  "InPlanePhaseEncodingDirectionDICOM": "COL",
  "InstitutionAddress": "Street StreetNo,City,District,IL,ZIP",
  "InstitutionName": "Weizmann Institute",
  "InstitutionalDepartmentName": "Department",
  "MRAcquisitionType": "2D",
  "MagneticFieldStrength": 3,
  "Manufacturer": "Siemens",
  "ManufacturersModelName": "Prisma",
  "MatrixCoilMode": "SENSE",
  "Modality": "MR",
  "MultibandAccelerationFactor": 2,
  "PartialFourier": 1,
  "PatientPosition": "HFS",
  "PercentPhaseFOV": 100,
  "PercentSampling": 100,
  "PhaseEncodingDirection": "j-",
  "PhaseEncodingSteps": 96,
  "PhaseResolution": 1,
  "PixelBandwidth": 2265,
  "ProcedureStepDescription": "Weizmann^Sobel",
  "ProtocolName": "EPI_PSAP_iso2.5",
  "PulseSequenceDetails": "%CustomerSeq%\\cmrr_mbep2d_bold",
  "ReceiveCoilActiveElements": "HEA;HEP",
  "ReceiveCoilName": "Head_32",
  "ReconMatrixPE": 96,
  "RepetitionTime": 2,
  "SAR": 0.0933581,
  "ScanOptions": "FS",
  "ScanningSequence": "EP",
  "SequenceName": "epfid2d1_96",
  "SequenceVariant": "SK\\SS",
  "SeriesDescription": "EPI_PSAP_iso2.5",
  "SeriesNumber": 6,
  "ShimSetting": [5906, -4000, -1940, 513, 40, -14, -89, 43],
  "SliceThickness": 2.5,
  "SliceTiming": [0, 0.92, 1.8375, 0.7775, 1.6975, 0.6375, 1.555, 0.495, 1.415, 0.355, 1.2725, 0.2125, 1.1325, 0.07, 0.99, 1.91, 0.8475, 1.7675, 0.7075, 1.6275, 0.565, 1.485, 0.425, 1.3425, 0.2825, 1.2025, 0.1425, 1.06, 0, 0.92, 1.8375, 0.7775, 1.6975, 0.6375, 1.555, 0.495, 1.415, 0.355, 1.2725, 0.2125, 1.1325, 0.07, 0.99, 1.91, 0.8475, 1.7675, 0.7075, 1.6275, 0.565, 1.485, 0.425, 1.3425, 0.2825, 1.2025, 0.1425, 1.06],
  "SoftwareVersions": "syngo MR E11",
  "SpacingBetweenSlices": 2.5,
  "StationName": "AWP166054",
  "TaskName": "PSAP",
  "TotalReadoutTime": 0.0484496,
  "TxRefAmp": 253.8,
  "VendorReportedEchoSpacing": 0.00051,
  "WipMemBlock": "65211eee-7716-49e5-9b45-8c44408cd478||Sequence: R016 ve11c/master r/e634e98; Dec 19 2017 11:00:25 by eja",
  "dcmmeta_affine": [
    [-2.4968857765197754, -0.10028527677059174, 0.07418826967477798, 124.26195526123047],
    [-0.12323782593011856, 2.21342396736145, -1.1556674242019653, -65.6946029663086],
    [0.019325466826558113, 1.1578850746154785, 2.2156102657318115, -131.6848907470703],
    [0.0, 0.0, 0.0, 1.0]
],
  "dcmmeta_reorient_transform": [
    [0.0, -1.0, 0.0, 95.0],
    [1.0, 0.0, 0.0, 0.0],
    [0.0, 0.0, 1.0, 0.0],
    [0.0, 0.0, 0.0, 1.0]
],
  "dcmmeta_shape": [96, 96, 56, 490],
  "dcmmeta_slice_dim": 2,
  "dcmmeta_version": 0.6,
  "global": {
    "const": {
      "AcquisitionMatrix": [96, 0, 0, 96],
      "AngioFlag": "N",
      "BitsAllocated": 16,
      "BitsStored": 16,
      "BodyPartExamined": "BRAIN",
      "Columns": 768,
      "EchoNumbers": 1,
      "EchoTime": 30.0,
      "EchoTrainLength": 96,
      "FlipAngle": 75.0,
      "HighBit": 15,
      "ImageOrientationPatient": [0.99875434127881, 0.04929513146332, 0.00773018697963, -0.0401141092761, 0.88536954010333, -0.4631540086129],
      "ImagePositionPatient": [-919.99264672726, -929.69898314149, 360.87019121667],
      "ImageType": [
        "ORIGINAL",
        "PRIMARY",
        "M",
        "MB",
        "ND",
        "MOSAIC"
],
      "ImagedNucleus": "1H",
      "ImagingFrequency": 123.260384,
      "InPlanePhaseEncodingDirection": "COL",
      "MRAcquisitionType": "2D",
      "MagneticFieldStrength": 3.0,
      "Manufacturer": "SIEMENS",
      "ManufacturerModelName": "Prisma",
      "Modality": "MR",
      "NumberOfAverages": 1.0,
      "NumberOfPhaseEncodingSteps": 96,
      "PercentPhaseFieldOfView": 100.0,
      "PercentSampling": 100.0,
      "PerformedProcedureStepStartTime": "131531.837000",
      "PhotometricInterpretation": "MONOCHROME2",
      "PixelBandwidth": 2265.0,
      "PixelRepresentation": 0,
      "PixelSpacing": [2.5, 2.5],
      "ProtocolName": "EPI_PSAP_iso2.5",
      "RepetitionTime": 2000.0,
      "Rows": 768,
      "SAR": 0.09335812838666,
      "SamplesPerPixel": 1,
      "ScanOptions": "FS",
      "ScanningSequence": "EP",
      "SequenceName": "epfid2d1_96",
      "SequenceVariant": [
        "SK",
        "SS"
],
      "SeriesDescription": "EPI_PSAP_iso2.5",
      "SeriesNumber": 6,
      "SeriesTime": "135146.915000",
      "SliceLocation": -82.649002528881,
      "SliceThickness": 2.5,
      "SmallestImagePixelValue": 0,
      "SoftwareVersions": "syngo MR E11",
      "SpacingBetweenSlices": 2.4999999557473,
      "SpecificCharacterSet": "ISO_IR 100",
      "StudyID": "2",
      "StudyTime": "131531.772000",
      "TransmitCoilName": "Body",
      "VariableFlipAngleFlag": "N",
      "WindowCenterWidthExplanation": "Algo1",
      "dBdt": 0.0},
    "slices": {}
  },
  "time": {
    "samples": {
      "AcquisitionNumber": [1, 2, 3, 4, 5, 6, 7, 8, 9, 10, 11, 12, 13, 14, 15, 16, 17, 18, 19, 20, 21, 22, 23, 24, 25, 26, 27, 28, 29, 30, 31, 32, 33, 34, 35, 36, 37, 38, 39, 40, 41, 42, 43, 44, 45, 46, 47, 48, 49, 50, 51, 52, 53, 54, 55, 56, 57, 58, 59, 60, 61, 62, 63, 64, 65, 66, 67, 68, 69, 70, 71, 72, 73, 74, 75, 76, 77, 78, 79, 80, 81, 82, 83, 84, 85, 86, 87, 88, 89, 90, 91, 92, 93, 94, 95, 96, 97, 98, 99, 100, 101, 102, 103, 104, 105, 106, 107, 108, 109, 110, 111, 112, 113, 114, 115, 116, 117, 118, 119, 120, 121, 122, 123, 124, 125, 126, 127, 128, 129, 130, 131, 132, 133, 134, 135, 136, 137, 138, 139, 140, 141, 142, 143, 144, 145, 146, 147, 148, 149, 150, 151, 152, 153, 154, 155, 156, 157, 158, 159, 160, 161, 162, 163, 164, 165, 166, 167, 168, 169, 170, 171, 172, 173, 174, 175, 176, 177, 178, 179, 180, 181, 182, 183, 184, 185, 186, 187, 188, 189, 190, 191, 192, 193, 194, 195, 196, 197, 198, 199, 200, 201, 202, 203, 204, 205, 206, 207, 208, 209, 210, 211, 212, 213, 214, 215, 216, 217, 218, 219, 220, 221, 222, 223, 224, 225, 226, 227, 228, 229, 230, 231, 232, 233, 234, 235, 236, 237, 238, 239, 240, 241, 242, 243, 244, 245, 246, 247, 248, 249, 250, 251, 252, 253, 254, 255, 256, 257, 258, 259, 260, 261, 262, 263, 264, 265, 266, 267, 268, 269, 270, 271, 272, 273, 274, 275, 276, 277, 278, 279, 280, 281, 282, 283, 284, 285, 286, 287, 288, 289, 290, 291, 292, 293, 294, 295, 296, 297, 298, 299, 300, 301, 302, 303, 304, 305, 306, 307, 308, 309, 310, 311, 312, 313, 314, 315, 316, 317, 318, 319, 320, 321, 322, 323, 324, 325, 326, 327, 328, 329, 330, 331, 332, 333, 334, 335, 336, 337, 338, 339, 340, 341, 342, 343, 344, 345, 346, 347, 348, 349, 350, 351, 352, 353, 354, 355, 356, 357, 358, 359, 360, 361, 362, 363, 364, 365, 366, 367, 368, 369, 370, 371, 372, 373, 374, 375, 376, 377, 378, 379, 380, 381, 382, 383, 384, 385, 386, 387, 388, 389, 390, 391, 392, 393, 394, 395, 396, 397, 398, 399, 400, 401, 402, 403, 404, 405, 406, 407, 408, 409, 410, 411, 412, 413, 414, 415, 416, 417, 418, 419, 420, 421, 422, 423, 424, 425, 426, 427, 428, 429, 430, 431, 432, 433, 434, 435, 436, 437, 438, 439, 440, 441, 442, 443, 444, 445, 446, 447, 448, 449, 450, 451, 452, 453, 454, 455, 456, 457, 458, 459, 460, 461, 462, 463, 464, 465, 466, 467, 468, 469, 470, 471, 472, 473, 474, 475, 476, 477, 478, 479, 480, 481, 482, 483, 484, 485, 486, 487, 488, 489, 490],
      "AcquisitionTime": ["135057.352500", "135059.352500", "135101.352500", "135103.352500", "135105.352500", "135107.352500", "135109.352500", "135111.352500", "135113.352500", "135115.352500", "135117.352500", "135119.352500", "135121.352500", "135123.352500", "135125.352500", "135127.352500", "135129.352500", "135131.352500", "135133.352500", "135135.352500", "135137.352500", "135139.352500", "135141.352500", "135143.352500", "135145.352500", "135147.352500", "135149.352500", "135151.352500", "135153.352500", "135155.352500", "135157.352500", "135159.352500", "135201.352500", "135203.352500", "135205.352500", "135207.352500", "135209.352500", "135211.352500", "135213.352500", "135215.352500", "135217.352500", "135219.352500", "135221.352500", "135223.352500", "135225.352500", "135227.352500", "135229.352500", "135231.352500", "135233.352500", "135235.352500", "135237.352500", "135239.352500", "135241.352500", "135243.352500", "135245.352500", "135247.352500", "135249.352500", "135251.352500", "135253.352500", "135255.352500", "135257.352500", "135259.352500", "135301.352500", "135303.352500", "135305.352500", "135307.352500", "135309.352500", "135311.352500", "135313.352500", "135315.352500", "135317.352500", "135319.352500", "135321.352500", "135323.352500", "135325.352500", "135327.352500", "135329.352500", "135331.352500", "135333.352500", "135335.352500", "135337.352500", "135339.352500", "135341.352500", "135343.352500", "135345.352500", "135347.352500", "135349.352500", "135351.352500", "135353.352500", "135355.352500", "135357.352500", "135359.352500", "135401.352500", "135403.352500", "135405.352500", "135407.352500", "135409.352500", "135411.352500", "135413.352500", "135415.352500", "135417.352500", "135419.352500", "135421.352500", "135423.352500", "135425.352500", "135427.352500", "135429.352500", "135431.352500", "135433.352500", "135435.352500", "135437.352500", "135439.352500", "135441.352500", "135443.352500", "135445.352500", "135447.352500", "135449.352500", "135451.352500", "135453.352500", "135455.352500", "135457.352500", "135459.352500", "135501.352500", "135503.352500", "135505.352500", "135507.352500", "135509.352500", "135511.352500", "135513.352500", "135515.352500", "135517.352500", "135519.352500", "135521.352500", "135523.352500", "135525.352500", "135527.352500", "135529.352500", "135531.352500", "135533.352500", "135535.352500", "135537.352500", "135539.352500", "135541.352500", "135543.352500", "135545.352500", "135547.352500", "135549.352500", "135551.352500", "135553.352500", "135555.352500", "135557.352500", "135559.352500", "135601.352500", "135603.352500", "135605.352500", "135607.352500", "135609.352500", "135611.352500", "135613.352500", "135615.352500", "135617.352500", "135619.352500", "135621.352500", "135623.352500", "135625.352500", "135627.352500", "135629.352500", "135631.352500", "135633.352500", "135635.352500", "135637.352500", "135639.352500", "135641.352500", "135643.352500", "135645.352500", "135647.352500", "135649.352500", "135651.352500", "135653.352500", "135655.352500", "135657.352500", "135659.352500", "135701.352500", "135703.352500", "135705.352500", "135707.352500", "135709.352500", "135711.352500", "135713.352500", "135715.352500", "135717.352500", "135719.352500", "135721.352500", "135723.352500", "135725.352500", "135727.352500", "135729.352500", "135731.352500", "135733.352500", "135735.352500", "135737.352500", "135739.352500", "135741.352500", "135743.352500", "135745.352500", "135747.352500", "135749.352500", "135751.352500", "135753.352500", "135755.352500", "135757.352500", "135759.352500", "135801.352500", "135803.352500", "135805.352500", "135807.352500", "135809.352500", "135811.352500", "135813.352500", "135815.352500", "135817.352500", "135819.352500", "135821.352500", "135823.352500", "135825.352500", "135827.352500", "135829.352500", "135831.352500", "135833.352500", "135835.352500", "135837.352500", "135839.352500", "135841.352500", "135843.352500", "135845.352500", "135847.352500", "135849.352500", "135851.352500", "135853.352500", "135855.352500", "135857.352500", "135859.352500", "135901.352500", "135903.352500", "135905.352500", "135907.352500", "135909.352500", "135911.352500", "135913.352500", "135915.352500", "135917.352500", "135919.352500", "135921.352500", "135923.352500", "135925.352500", "135927.352500", "135929.352500", "135931.352500", "135933.352500", "135935.352500", "135937.352500", "135939.352500", "135941.352500", "135943.352500", "135945.352500", "135947.352500", "135949.352500", "135951.352500", "135953.352500", "135955.352500", "135957.352500", "135959.352500", "140001.352500", "140003.352500", "140005.352500", "140007.352500", "140009.352500", "140011.352500", "140013.352500", "140015.352500", "140017.352500", "140019.352500", "140021.352500", "140023.352500", "140025.352500", "140027.352500", "140029.352500", "140031.352500", "140033.352500", "140035.352500", "140037.352500", "140039.352500", "140041.352500", "140043.352500", "140045.352500", "140047.352500", "140049.352500", "140051.352500", "140053.352500", "140055.352500", "140057.352500", "140059.352500", "140101.352500", "140103.352500", "140105.352500", "140107.352500", "140109.352500", "140111.352500", "140113.352500", "140115.352500", "140117.352500", "140119.352500", "140121.352500", "140123.352500", "140125.352500", "140127.352500", "140129.352500", "140131.352500", "140133.352500", "140135.352500", "140137.352500", "140139.352500", "140141.352500", "140143.352500", "140145.352500", "140147.352500", "140149.352500", "140151.352500", "140153.352500", "140155.352500", "140157.352500", "140159.352500", "140201.352500", "140203.352500", "140205.352500", "140207.352500", "140209.352500", "140211.352500", "140213.352500", "140215.352500", "140217.352500", "140219.352500", "140221.352500", "140223.352500", "140225.352500", "140227.352500", "140229.352500", "140231.352500", "140233.352500", "140235.352500", "140237.352500", "140239.352500", "140241.352500", "140243.352500", "140245.352500", "140247.352500", "140249.352500", "140251.352500", "140253.352500", "140255.352500", "140257.352500", "140259.352500", "140301.352500", "140303.352500", "140305.352500", "140307.352500", "140309.352500", "140311.352500", "140313.352500", "140315.352500", "140317.352500", "140319.352500", "140321.352500", "140323.352500", "140325.352500", "140327.352500", "140329.352500", "140331.352500", "140333.352500", "140335.352500", "140337.352500", "140339.352500", "140341.352500", "140343.352500", "140345.352500", "140347.352500", "140349.352500", "140351.352500", "140353.352500", "140355.352500", "140357.352500", "140359.352500", "140401.352500", "140403.352500", "140405.352500", "140407.352500", "140409.352500", "140411.352500", "140413.352500", "140415.352500", "140417.352500", "140419.352500", "140421.352500", "140423.352500", "140425.352500", "140427.352500", "140429.352500", "140431.352500", "140433.352500", "140435.352500", "140437.352500", "140439.352500", "140441.352500", "140443.352500", "140445.352500", "140447.352500", "140449.352500", "140451.352500", "140453.352500", "140455.352500", "140457.352500", "140459.352500", "140501.352500", "140503.352500", "140505.352500", "140507.352500", "140509.352500", "140511.352500", "140513.352500", "140515.352500", "140517.352500", "140519.352500", "140521.352500", "140523.352500", "140525.352500", "140527.352500", "140529.352500", "140531.352500", "140533.352500", "140535.352500", "140537.352500", "140539.352500", "140541.352500", "140543.352500", "140545.352500", "140547.352500", "140549.352500", "140551.352500", "140553.352500", "140555.352500", "140557.352500", "140559.352500", "140601.352500", "140603.352500", "140605.352500", "140607.352500", "140609.352500", "140611.352500", "140613.352500", "140615.352500", "140617.352500", "140619.352500", "140621.352500", "140623.352500", "140625.352500", "140627.352500", "140629.352500", "140631.352500", "140633.352500", "140635.352500", "140637.352500", "140639.352500", "140641.352500", "140643.352500", "140645.352500", "140647.352500", "140649.352500", "140651.352500", "140653.352500", "140655.352500", "140657.352500", "140659.352500", "140701.352500", "140703.352500", "140705.352500", "140707.352500", "140709.352500", "140711.352500", "140713.352500", "140715.352500"],
      "ContentTime": ["135146.918000", "135146.921000", "135146.924000", "135146.932000", "135146.935000", "135146.938000", "135146.941000", "135146.943000", "135146.946000", "135146.949000", "135146.951000", "135146.954000", "135146.956000", "135146.959000", "135146.961000", "135146.964000", "135146.967000", "135146.974000", "135146.976000", "135146.979000", "135146.981000", "135146.984000", "135146.987000", "135146.989000", "135226.871000", "135226.879000", "135226.882000", "135226.884000", "135226.887000", "135226.890000", "135226.892000", "135226.896000", "135226.899000", "135226.902000", "135226.904000", "135226.907000", "135226.909000", "135226.912000", "135226.915000", "135226.917000", "135226.920000", "135226.922000", "135226.925000", "135226.927000", "135306.870000", "135306.873000", "135306.880000", "135306.882000", "135306.885000", "135306.888000", "135306.890000", "135306.893000", "135306.895000", "135306.898000", "135306.907000", "135306.909000", "135306.912000", "135306.915000", "135306.917000", "135306.920000", "135306.927000", "135306.929000", "135306.932000", "135306.934000", "135346.870000", "135346.873000", "135346.876000", "135346.878000", "135346.881000", "135346.884000", "135346.886000", "135346.889000", "135346.891000", "135346.894000", "135346.897000", "135346.899000", "135346.902000", "135346.904000", "135346.907000", "135346.909000", "135346.912000", "135346.915000", "135346.917000", "135346.920000", "135426.870000", "135426.873000", "135426.876000", "135426.879000", "135426.881000", "135426.884000", "135426.886000", "135426.889000", "135426.891000", "135426.894000", "135426.897000", "135426.899000", "135426.902000", "135426.905000", "135426.907000", "135426.910000", "135426.912000", "135426.915000", "135426.918000", "135426.920000", "135506.871000", "135506.874000", "135506.877000", "135506.880000", "135506.882000", "135506.885000", "135506.887000", "135506.890000", "135506.893000", "135506.895000", "135506.898000", "135506.900000", "135506.903000", "135506.905000", "135506.908000", "135506.911000", "135506.913000", "135506.916000", "135506.918000", "135506.921000", "135546.870000", "135546.873000", "135546.876000", "135546.878000", "135546.881000", "135546.884000", "135546.886000", "135546.889000", "135546.892000", "135546.894000", "135546.897000", "135546.900000", "135546.902000", "135546.905000", "135546.908000", "135546.910000", "135546.913000", "135546.916000", "135546.918000", "135546.921000", "135606.870000", "135606.873000", "135606.876000", "135606.879000", "135606.881000", "135606.884000", "135606.886000", "135606.889000", "135606.891000", "135606.894000", "135646.870000", "135646.873000", "135646.876000", "135646.879000", "135646.881000", "135646.884000", "135646.886000", "135646.889000", "135646.891000", "135646.894000", "135646.897000", "135646.899000", "135646.902000", "135646.904000", "135646.907000", "135646.910000", "135646.912000", "135646.915000", "135646.917000", "135646.920000", "135726.871000", "135726.874000", "135726.877000", "135726.880000", "135726.882000", "135726.885000", "135726.888000", "135726.890000", "135726.893000", "135726.895000", "135726.898000", "135726.900000", "135726.903000", "135726.906000", "135726.908000", "135726.911000", "135726.913000", "135726.916000", "135726.919000", "135726.921000", "135806.871000", "135806.874000", "135806.877000", "135806.880000", "135806.882000", "135806.885000", "135806.887000", "135806.890000", "135806.893000", "135806.895000", "135806.898000", "135806.900000", "135806.903000", "135806.905000", "135806.908000", "135806.910000", "135806.913000", "135806.916000", "135806.918000", "135806.921000", "135846.870000", "135846.873000", "135846.876000", "135846.878000", "135846.881000", "135846.884000", "135846.886000", "135846.889000", "135846.892000", "135846.894000", "135846.897000", "135846.899000", "135846.902000", "135846.904000", "135846.907000", "135846.910000", "135846.912000", "135846.915000", "135846.917000", "135846.920000", "135926.872000", "135926.874000", "135926.877000", "135926.880000", "135926.882000", "135926.885000", "135926.888000", "135926.890000", "135926.893000", "135926.895000", "135926.898000", "135926.901000", "135926.903000", "135926.921000", "135926.924000", "135926.927000", "135926.929000", "135926.932000", "135926.934000", "135926.937000", "140006.871000", "140006.873000", "140006.876000", "140006.879000", "140006.881000", "140006.884000", "140006.887000", "140006.889000", "140006.892000", "140006.894000", "140006.897000", "140006.900000", "140006.902000", "140006.905000", "140006.907000", "140006.910000", "140006.912000", "140006.915000", "140006.918000", "140006.920000", "140046.871000", "140046.874000", "140046.877000", "140046.880000", "140046.882000", "140046.885000", "140046.887000", "140046.890000", "140046.893000", "140046.895000", "140046.898000", "140046.901000", "140046.903000", "140046.906000", "140046.908000", "140046.911000", "140046.914000", "140046.916000", "140046.919000", "140046.921000", "140126.871000", "140126.873000", "140126.876000", "140126.879000", "140126.881000", "140126.884000", "140126.886000", "140126.889000", "140126.892000", "140126.894000", "140126.897000", "140126.900000", "140126.902000", "140126.905000", "140126.907000", "140126.910000", "140126.912000", "140126.915000", "140126.918000", "140126.920000", "140206.870000", "140206.873000", "140206.876000", "140206.879000", "140206.881000", "140206.884000", "140206.886000", "140206.889000", "140206.892000", "140206.894000", "140206.897000", "140206.900000", "140206.902000", "140206.905000", "140206.907000", "140206.910000", "140206.913000", "140206.915000", "140206.918000", "140206.920000", "140246.870000", "140246.873000", "140246.876000", "140246.878000", "140246.881000", "140246.884000", "140246.886000", "140246.889000", "140246.892000", "140246.894000", "140246.897000", "140246.900000", "140246.902000", "140246.905000", "140246.907000", "140246.910000", "140246.915000", "140246.918000", "140246.920000", "140246.923000", "140326.871000", "140326.873000", "140326.876000", "140326.879000", "140326.882000", "140326.884000", "140326.887000", "140326.889000", "140326.892000", "140326.895000", "140326.897000", "140326.900000", "140326.902000", "140326.905000", "140326.907000", "140326.910000", "140326.913000", "140326.915000", "140326.918000", "140326.921000", "140406.872000", "140406.874000", "140406.877000", "140406.880000", "140406.882000", "140406.885000", "140406.887000", "140406.890000", "140406.893000", "140406.895000", "140406.898000", "140406.901000", "140406.903000", "140406.906000", "140406.908000", "140406.911000", "140406.914000", "140406.916000", "140406.919000", "140406.922000", "140446.870000", "140446.873000", "140446.876000", "140446.879000", "140446.881000", "140446.884000", "140446.886000", "140446.889000", "140446.892000", "140446.894000", "140446.897000", "140446.899000", "140446.902000", "140446.905000", "140446.907000", "140446.910000", "140446.912000", "140446.915000", "140446.918000", "140446.920000", "140526.871000", "140526.873000", "140526.876000", "140526.879000", "140526.881000", "140526.884000", "140526.886000", "140526.889000", "140526.892000", "140526.894000", "140526.897000", "140526.900000", "140526.912000", "140526.914000", "140526.917000", "140526.920000", "140526.922000", "140526.925000", "140526.927000", "140526.930000", "140606.871000", "140606.874000", "140606.876000", "140606.879000", "140606.882000", "140606.884000", "140606.892000", "140606.894000", "140606.897000", "140606.900000", "140606.902000", "140606.905000", "140606.907000", "140606.910000", "140606.913000", "140606.915000", "140606.918000", "140606.920000", "140606.923000", "140606.926000", "140646.871000", "140646.873000", "140646.876000", "140646.879000", "140646.881000", "140646.884000", "140646.886000", "140646.889000", "140646.892000", "140646.894000", "140646.897000", "140646.899000", "140646.902000", "140646.905000", "140646.907000", "140646.910000", "140646.912000", "140646.915000", "140646.918000", "140646.920000", "140719.958000", "140719.962000", "140719.965000", "140719.967000", "140719.970000", "140719.973000", "140719.975000", "140719.978000", "140719.981000", "140719.983000", "140719.986000", "140719.989000", "140719.992000", "140719.994000", "140719.997000", "140720.000000"],
