{
  "AcquisitionMatrixPE": 96,
  "AcquisitionNumber": 1,
  "AcquisitionTime": "14:19:16.112500",
  "BandwidthPerPixelPhaseEncode": 20.425,
  "BaseResolution": 96,
  "BodyPartExamined": "BRAIN",
  "CoilCombinationMethod": "Sum of Squares",
  "ConsistencyInfo": "N4_VE11C_LATEST_20160120",
  "ConversionSoftware": "dcm2niix",
  "ConversionSoftwareVersion": "v1.0.20211006",
  "DerivedVendorReportedEchoSpacing": 0.000509996,
  "DeviceSerialNumber": "166054",
  "DwellTime": 2.3e-06,
  "EchoTime": 0.03,
  "EchoTrainLength": 96,
  "EffectiveEchoSpacing": 0.000509996,
  "FlipAngle": 75,
  "HeudiconvVersion": "0.11.3+d20220512",
  "ImageComments": "Unaliased MB2/PE2",
  "ImageOrientationPatientDICOM": [0.997493, 0.0394665, 0.0587421, -0.0186304, 0.947221, -0.32004],
  "ImageOrientationText": "Tra>Cor(-18.6)>Sag(3.9)",
  "ImageType": [
    "ORIGINAL",
    "PRIMARY",
    "M",
    "MB",
    "ND",
    "MOSAIC"
],
  "ImagingFrequency": 123.259,
  "InPlanePhaseEncodingDirectionDICOM": "COL",
  "InstitutionAddress": "Street StreetNo,City,District,IL,ZIP",
  "InstitutionName": "Weizmann Institute",
  "InstitutionalDepartmentName": "Department",
  "MRAcquisitionType": "2D",
  "MagneticFieldStrength": 3,
  "Manufacturer": "Siemens",
  "ManufacturersModelName": "Prisma",
  "MatrixCoilMode": "SENSE",
  "Modality": "MR",
  "MultibandAccelerationFactor": 2,
  "PartialFourier": 1,
  "PatientPosition": "HFS",
  "PercentPhaseFOV": 100,
  "PercentSampling": 100,
  "PhaseEncodingDirection": "j-",
  "PhaseEncodingSteps": 96,
  "PhaseResolution": 1,
  "PixelBandwidth": 2265,
  "ProcedureStepDescription": "Weizmann^Sobel",
  "ProtocolName": "EPI_PSAP_iso2.5",
  "PulseSequenceDetails": "%CustomerSeq%\\cmrr_mbep2d_bold",
  "ReceiveCoilActiveElements": "HEA;HEP",
  "ReceiveCoilName": "Head_32",
  "ReconMatrixPE": 96,
  "RepetitionTime": 2,
  "SAR": 0.0934466,
  "ScanOptions": "FS",
  "ScanningSequence": "EP",
  "SequenceName": "epfid2d1_96",
  "SequenceVariant": "SK\\SS",
  "SeriesDescription": "EPI_PSAP_iso2.5",
  "SeriesNumber": 6,
  "ShimSetting": [5936, -4049, -1854, 495, 164, 19, 16, -7],
  "SliceThickness": 2.5,
  "SliceTiming": [0, 0.92, 1.8375, 0.7775, 1.6975, 0.635, 1.555, 0.495, 1.415, 0.3525, 1.2725, 0.2125, 1.13, 0.07, 0.99, 1.91, 0.8475, 1.7675, 0.7075, 1.625, 0.565, 1.485, 0.425, 1.3425, 0.2825, 1.2025, 0.14, 1.06, 0, 0.92, 1.8375, 0.7775, 1.6975, 0.635, 1.555, 0.495, 1.415, 0.3525, 1.2725, 0.2125, 1.13, 0.07, 0.99, 1.91, 0.8475, 1.7675, 0.7075, 1.625, 0.565, 1.485, 0.425, 1.3425, 0.2825, 1.2025, 0.14, 1.06],
  "SoftwareVersions": "syngo MR E11",
  "SpacingBetweenSlices": 2.5,
  "StationName": "AWP166054",
  "TaskName": "PSAP",
  "TotalReadoutTime": 0.0484496,
  "TxRefAmp": 238.5,
  "VendorReportedEchoSpacing": 0.00051,
  "WipMemBlock": "152324ad-b272-4bca-b6f2-b374004a187c||Sequence: R016 ve11c/master r/e634e98; Dec 19 2017 11:00:25 by eja",
  "dcmmeta_affine": [
    [-2.493731737136841, -0.04657597839832306, 0.17068150639533997, 118.36280822753906],
    [-0.09866621345281601, 2.3680524826049805, -0.7953568696975708, -83.81643676757812],
    [0.14685530960559845, 0.8000988960266113, 2.3639533519744873, -89.30001068115234],
    [0.0, 0.0, 0.0, 1.0]
],
  "dcmmeta_reorient_transform": [
    [0.0, -1.0, 0.0, 95.0],
    [1.0, 0.0, 0.0, 0.0],
    [0.0, 0.0, 1.0, 0.0],
    [0.0, 0.0, 0.0, 1.0]
],
  "dcmmeta_shape": [96, 96, 56, 383],
  "dcmmeta_slice_dim": 2,
  "dcmmeta_version": 0.6,
  "global": {
    "const": {
      "AcquisitionMatrix": [96, 0, 0, 96],
      "AngioFlag": "N",
      "BitsAllocated": 16,
      "BitsStored": 16,
      "BodyPartExamined": "BRAIN",
      "Columns": 768,
      "EchoNumbers": 1,
      "EchoTime": 30.0,
      "EchoTrainLength": 96,
      "FlipAngle": 75.0,
      "HighBit": 15,
      "ImageOrientationPatient": [0.99749273669991, 0.03946648476283, 0.05874212127076, -0.0186303908192, 0.94722098059588, -0.3200395638931],
      "ImagePositionPatient": [-936.18246118203, -969.96601662534, 206.19923983325],
      "ImageType": [
        "ORIGINAL",
        "PRIMARY",
        "M",
        "MB",
        "ND",
        "MOSAIC"
],
      "ImagedNucleus": "1H",
      "ImagingFrequency": 123.259218,
      "InPlanePhaseEncodingDirection": "COL",
      "MRAcquisitionType": "2D",
      "MagneticFieldStrength": 3.0,
      "Manufacturer": "SIEMENS",
      "ManufacturerModelName": "Prisma",
      "Modality": "MR",
      "NumberOfAverages": 1.0,
      "NumberOfPhaseEncodingSteps": 96,
      "PercentPhaseFieldOfView": 100.0,
      "PercentSampling": 100.0,
      "PerformedProcedureStepStartTime": "133433.657000",
      "PhotometricInterpretation": "MONOCHROME2",
      "PixelBandwidth": 2265.0,
      "PixelRepresentation": 0,
      "PixelSpacing": [2.5, 2.5],
      "ProtocolName": "EPI_PSAP_iso2.5",
      "RepetitionTime": 2000.0,
      "Rows": 768,
      "SAR": 0.09344664300237,
      "SamplesPerPixel": 1,
      "ScanOptions": "FS",
      "ScanningSequence": "EP",
      "SequenceName": "epfid2d1_96",
      "SequenceVariant": [
        "SK",
        "SS"
],
      "SeriesDescription": "EPI_PSAP_iso2.5",
      "SeriesNumber": 6,
      "SeriesTime": "142009.744000",
      "SliceLocation": -49.693890806795,
      "SliceThickness": 2.5,
      "SmallestImagePixelValue": 0,
      "SoftwareVersions": "syngo MR E11",
      "SpacingBetweenSlices": 2.499999953811,
      "SpecificCharacterSet": "ISO_IR 100",
      "StudyID": "1",
      "StudyTime": "133433.594000",
      "TransmitCoilName": "Body",
      "VariableFlipAngleFlag": "N",
      "WindowCenterWidthExplanation": "Algo1",
      "dBdt": 0.0},
    "slices": {}
  },
  "time": {
    "samples": {
      "AcquisitionNumber": [1, 2, 3, 4, 5, 6, 7, 8, 9, 10, 11, 12, 13, 14, 15, 16, 17, 18, 19, 20, 21, 22, 23, 24, 25, 26, 27, 28, 29, 30, 31, 32, 33, 34, 35, 36, 37, 38, 39, 40, 41, 42, 43, 44, 45, 46, 47, 48, 49, 50, 51, 52, 53, 54, 55, 56, 57, 58, 59, 60, 61, 62, 63, 64, 65, 66, 67, 68, 69, 70, 71, 72, 73, 74, 75, 76, 77, 78, 79, 80, 81, 82, 83, 84, 85, 86, 87, 88, 89, 90, 91, 92, 93, 94, 95, 96, 97, 98, 99, 100, 101, 102, 103, 104, 105, 106, 107, 108, 109, 110, 111, 112, 113, 114, 115, 116, 117, 118, 119, 120, 121, 122, 123, 124, 125, 126, 127, 128, 129, 130, 131, 132, 133, 134, 135, 136, 137, 138, 139, 140, 141, 142, 143, 144, 145, 146, 147, 148, 149, 150, 151, 152, 153, 154, 155, 156, 157, 158, 159, 160, 161, 162, 163, 164, 165, 166, 167, 168, 169, 170, 171, 172, 173, 174, 175, 176, 177, 178, 179, 180, 181, 182, 183, 184, 185, 186, 187, 188, 189, 190, 191, 192, 193, 194, 195, 196, 197, 198, 199, 200, 201, 202, 203, 204, 205, 206, 207, 208, 209, 210, 211, 212, 213, 214, 215, 216, 217, 218, 219, 220, 221, 222, 223, 224, 225, 226, 227, 228, 229, 230, 231, 232, 233, 234, 235, 236, 237, 238, 239, 240, 241, 242, 243, 244, 245, 246, 247, 248, 249, 250, 251, 252, 253, 254, 255, 256, 257, 258, 259, 260, 261, 262, 263, 264, 265, 266, 267, 268, 269, 270, 271, 272, 273, 274, 275, 276, 277, 278, 279, 280, 281, 282, 283, 284, 285, 286, 287, 288, 289, 290, 291, 292, 293, 294, 295, 296, 297, 298, 299, 300, 301, 302, 303, 304, 305, 306, 307, 308, 309, 310, 311, 312, 313, 314, 315, 316, 317, 318, 319, 320, 321, 322, 323, 324, 325, 326, 327, 328, 329, 330, 331, 332, 333, 334, 335, 336, 337, 338, 339, 340, 341, 342, 343, 344, 345, 346, 347, 348, 349, 350, 351, 352, 353, 354, 355, 356, 357, 358, 359, 360, 361, 362, 363, 364, 365, 366, 367, 368, 369, 370, 371, 372, 373, 374, 375, 376, 377, 378, 379, 380, 381, 382, 383],
      "AcquisitionTime": ["141916.112500", "141918.112500", "141920.112500", "141922.112500", "141924.112500", "141926.112500", "141928.112500", "141930.112500", "141932.112500", "141934.112500", "141936.112500", "141938.112500", "141940.112500", "141942.112500", "141944.112500", "141946.112500", "141948.112500", "141950.112500", "141952.112500", "141954.112500", "141956.112500", "141958.112500", "142000.112500", "142002.112500", "142004.112500", "142006.112500", "142008.112500", "142010.112500", "142012.112500", "142014.112500", "142016.112500", "142018.112500", "142020.112500", "142022.112500", "142024.112500", "142026.112500", "142028.112500", "142030.112500", "142032.112500", "142034.112500", "142036.112500", "142038.112500", "142040.112500", "142042.112500", "142044.112500", "142046.112500", "142048.112500", "142050.112500", "142052.112500", "142054.112500", "142056.112500", "142058.112500", "142100.112500", "142102.112500", "142104.112500", "142106.112500", "142108.112500", "142110.112500", "142112.112500", "142114.112500", "142116.112500", "142118.112500", "142120.112500", "142122.112500", "142124.112500", "142126.112500", "142128.112500", "142130.112500", "142132.112500", "142134.112500", "142136.112500", "142138.112500", "142140.112500", "142142.112500", "142144.112500", "142146.112500", "142148.112500", "142150.112500", "142152.112500", "142154.112500", "142156.112500", "142158.112500", "142200.112500", "142202.112500", "142204.112500", "142206.112500", "142208.112500", "142210.112500", "142212.112500", "142214.112500", "142216.112500", "142218.112500", "142220.112500", "142222.112500", "142224.112500", "142226.112500", "142228.112500", "142230.112500", "142232.112500", "142234.112500", "142236.112500", "142238.112500", "142240.112500", "142242.112500", "142244.112500", "142246.112500", "142248.112500", "142250.112500", "142252.112500", "142254.112500", "142256.112500", "142258.112500", "142300.112500", "142302.112500", "142304.112500", "142306.112500", "142308.112500", "142310.112500", "142312.112500", "142314.112500", "142316.112500", "142318.112500", "142320.112500", "142322.112500", "142324.112500", "142326.112500", "142328.112500", "142330.112500", "142332.112500", "142334.112500", "142336.112500", "142338.112500", "142340.112500", "142342.112500", "142344.112500", "142346.112500", "142348.112500", "142350.112500", "142352.112500", "142354.112500", "142356.112500", "142358.112500", "142400.112500", "142402.112500", "142404.112500", "142406.112500", "142408.112500", "142410.112500", "142412.112500", "142414.112500", "142416.112500", "142418.112500", "142420.112500", "142422.112500", "142424.112500", "142426.112500", "142428.112500", "142430.112500", "142432.112500", "142434.112500", "142436.112500", "142438.112500", "142440.112500", "142442.112500", "142444.112500", "142446.112500", "142448.112500", "142450.112500", "142452.112500", "142454.112500", "142456.112500", "142458.112500", "142500.112500", "142502.112500", "142504.112500", "142506.112500", "142508.112500", "142510.112500", "142512.112500", "142514.112500", "142516.112500", "142518.112500", "142520.112500", "142522.112500", "142524.112500", "142526.112500", "142528.112500", "142530.112500", "142532.112500", "142534.112500", "142536.112500", "142538.112500", "142540.112500", "142542.112500", "142544.112500", "142546.112500", "142548.112500", "142550.112500", "142552.112500", "142554.112500", "142556.112500", "142558.112500", "142600.112500", "142602.112500", "142604.112500", "142606.112500", "142608.112500", "142610.112500", "142612.112500", "142614.112500", "142616.112500", "142618.112500", "142620.112500", "142622.112500", "142624.112500", "142626.112500", "142628.112500", "142630.112500", "142632.112500", "142634.112500", "142636.112500", "142638.112500", "142640.112500", "142642.112500", "142644.112500", "142646.112500", "142648.112500", "142650.112500", "142652.112500", "142654.112500", "142656.112500", "142658.112500", "142700.112500", "142702.112500", "142704.112500", "142706.112500", "142708.112500", "142710.112500", "142712.112500", "142714.112500", "142716.112500", "142718.112500", "142720.112500", "142722.112500", "142724.112500", "142726.112500", "142728.112500", "142730.112500", "142732.112500", "142734.112500", "142736.112500", "142738.112500", "142740.112500", "142742.112500", "142744.112500", "142746.112500", "142748.112500", "142750.112500", "142752.112500", "142754.112500", "142756.112500", "142758.112500", "142800.112500", "142802.112500", "142804.112500", "142806.112500", "142808.112500", "142810.112500", "142812.112500", "142814.112500", "142816.112500", "142818.112500", "142820.112500", "142822.112500", "142824.112500", "142826.112500", "142828.112500", "142830.112500", "142832.112500", "142834.112500", "142836.112500", "142838.112500", "142840.112500", "142842.112500", "142844.112500", "142846.112500", "142848.112500", "142850.112500", "142852.112500", "142854.112500", "142856.112500", "142858.112500", "142900.112500", "142902.112500", "142904.112500", "142906.112500", "142908.112500", "142910.112500", "142912.112500", "142914.112500", "142916.112500", "142918.112500", "142920.112500", "142922.112500", "142924.112500", "142926.112500", "142928.112500", "142930.112500", "142932.112500", "142934.112500", "142936.112500", "142938.112500", "142940.112500", "142942.112500", "142944.112500", "142946.112500", "142948.112500", "142950.112500", "142952.112500", "142954.112500", "142956.112500", "142958.112500", "143000.112500", "143002.112500", "143004.112500", "143006.112500", "143008.112500", "143010.112500", "143012.112500", "143014.112500", "143016.112500", "143018.112500", "143020.112500", "143022.112500", "143024.112500", "143026.112500", "143028.112500", "143030.112500", "143032.112500", "143034.112500", "143036.112500", "143038.112500", "143040.112500", "143042.112500", "143044.112500", "143046.112500", "143048.112500", "143050.112500", "143052.112500", "143054.112500", "143056.112500", "143058.112500", "143100.112500", "143102.112500", "143104.112500", "143106.112500", "143108.112500", "143110.112500", "143112.112500", "143114.112500", "143116.112500", "143118.112500", "143120.112500", "143122.112500", "143124.112500", "143126.112500", "143128.112500", "143130.112500", "143132.112500", "143134.112500", "143136.112500", "143138.112500", "143140.112500", "143142.112500", "143144.112500", "143146.112500", "143148.112500", "143150.112500", "143152.112500", "143154.112500", "143156.112500", "143158.112500", "143200.112500"],
      "ContentTime": ["142009.748000", "142009.756000", "142009.759000", "142009.761000", "142009.764000", "142009.766000", "142009.769000", "142009.771000", "142009.774000", "142009.776000", "142009.787000", "142009.790000", "142009.793000", "142009.795000", "142009.798000", "142009.800000", "142009.803000", "142009.805000", "142009.808000", "142009.811000", "142009.813000", "142009.816000", "142009.818000", "142009.821000", "142009.823000", "142009.826000", "142049.718000", "142049.721000", "142049.724000", "142049.726000", "142049.729000", "142049.732000", "142049.734000", "142049.737000", "142049.739000", "142049.742000", "142049.744000", "142049.747000", "142049.749000", "142049.752000", "142049.754000", "142049.766000", "142049.769000", "142049.772000", "142049.774000", "142049.777000", "142129.718000", "142129.721000", "142129.724000", "142129.726000", "142129.729000", "142129.731000", "142129.734000", "142129.736000", "142129.753000", "142129.756000", "142129.758000", "142129.761000", "142129.763000", "142129.766000", "142129.768000", "142129.779000", "142129.782000", "142129.785000", "142129.787000", "142129.789000", "142209.719000", "142209.722000", "142209.725000", "142209.727000", "142209.730000", "142209.732000", "142209.735000", "142209.738000", "142209.740000", "142209.743000", "142209.745000", "142209.748000", "142209.750000", "142209.753000", "142209.755000", "142209.758000", "142209.761000", "142209.763000", "142209.766000", "142209.768000", "142249.719000", "142249.721000", "142249.724000", "142249.727000", "142249.729000", "142249.732000", "142249.734000", "142249.737000", "142249.739000", "142249.742000", "142249.744000", "142249.747000", "142249.749000", "142249.752000", "142249.754000", "142249.757000", "142249.759000", "142249.762000", "142249.765000", "142249.767000", "142329.719000", "142329.721000", "142329.724000", "142329.727000", "142329.729000", "142329.732000", "142329.734000", "142329.737000", "142329.739000", "142329.742000", "142329.745000", "142329.747000", "142329.750000", "142329.752000", "142329.755000", "142329.757000", "142329.760000", "142329.762000", "142329.765000", "142329.768000", "142409.719000", "142409.721000", "142409.724000", "142409.726000", "142409.729000", "142409.731000", "142409.734000", "142409.737000", "142409.739000", "142409.742000", "142409.744000", "142409.747000", "142409.749000", "142409.752000", "142409.755000", "142409.757000", "142409.760000", "142409.762000", "142409.765000", "142409.767000", "142449.720000", "142449.722000", "142449.725000", "142449.727000", "142449.730000", "142449.733000", "142449.735000", "142449.738000", "142449.740000", "142449.743000", "142449.745000", "142449.748000", "142449.750000", "142449.753000", "142449.755000", "142449.758000", "142449.760000", "142449.763000", "142449.766000", "142449.768000", "142529.718000", "142529.721000", "142529.724000", "142529.726000", "142529.729000", "142529.731000", "142529.734000", "142529.737000", "142529.739000", "142529.742000", "142529.744000", "142529.747000", "142529.749000", "142529.752000", "142529.755000", "142529.757000", "142529.760000", "142529.762000", "142529.765000", "142529.767000", "142609.719000", "142609.721000", "142609.724000", "142609.726000", "142609.729000", "142609.731000", "142609.734000", "142609.737000", "142609.739000", "142609.742000", "142609.744000", "142609.747000", "142609.749000", "142609.752000", "142609.754000", "142609.757000", "142609.760000", "142609.762000", "142609.765000", "142609.767000", "142649.720000", "142649.722000", "142649.725000", "142649.727000", "142649.730000", "142649.733000", "142649.735000", "142649.738000", "142649.740000", "142649.743000", "142649.745000", "142649.748000", "142649.750000", "142649.753000", "142649.756000", "142649.758000", "142649.761000", "142649.763000", "142649.766000", "142649.769000", "142729.719000", "142729.721000", "142729.724000", "142729.726000", "142729.729000", "142729.732000", "142729.734000", "142729.737000", "142729.739000", "142729.742000", "142729.744000", "142729.747000", "142729.749000", "142729.752000", "142729.755000", "142729.757000", "142729.760000", "142729.762000", "142729.765000", "142729.767000", "142809.718000", "142809.721000", "142809.724000", "142809.726000", "142809.729000", "142809.732000", "142809.734000", "142809.737000", "142809.739000", "142809.742000", "142809.749000", "142809.751000", "142809.754000", "142809.756000", "142809.759000", "142809.771000", "142809.773000", "142809.776000", "142809.778000", "142809.781000", "142829.719000", "142829.721000", "142829.724000", "142829.727000", "142829.729000", "142829.732000", "142829.734000", "142829.737000", "142829.739000", "142829.742000", "142909.720000", "142909.722000", "142909.725000", "142909.727000", "142909.730000", "142909.733000", "142909.735000", "142909.738000", "142909.740000", "142909.743000", "142909.745000", "142909.748000", "142909.751000", "142909.753000", "142909.756000", "142909.758000", "142909.761000", "142909.763000", "142909.766000", "142909.769000", "142949.719000", "142949.721000", "142949.724000", "142949.726000", "142949.729000", "142949.731000", "142949.734000", "142949.737000", "142949.739000", "142949.742000", "142949.744000", "142949.747000", "142949.750000", "142949.752000", "142949.755000", "142949.757000", "142949.760000", "142949.762000", "142949.765000", "142949.767000", "143029.719000", "143029.721000", "143029.724000", "143029.727000", "143029.729000", "143029.732000", "143029.734000", "143029.737000", "143029.739000", "143029.742000", "143029.744000", "143029.747000", "143029.749000", "143029.752000", "143029.755000", "143029.757000", "143029.760000", "143029.762000", "143029.765000", "143029.767000", "143109.719000", "143109.721000", "143109.724000", "143109.727000", "143109.729000", "143109.732000", "143109.734000", "143109.737000", "143109.739000", "143109.742000", "143109.744000", "143109.747000", "143109.750000", "143109.752000", "143109.755000", "143109.757000", "143109.760000", "143109.762000", "143109.765000", "143109.768000", "143149.720000", "143149.723000", "143149.725000", "143149.728000", "143149.730000", "143149.733000", "143149.735000", "143149.738000", "143149.740000", "143149.743000", "143149.745000", "143149.748000", "143149.751000", "143149.753000", "143149.756000", "143149.758000", "143149.761000", "143149.763000", "143149.766000", "143149.769000", "143204.418000", "143204.421000", "143204.424000", "143204.428000", "143204.431000", "143204.434000", "143204.437000"],
      "InstanceCreationTime": ["142009.748000", "142009.756000", "142009.759000", "142009.761000", "142009.764000", "142009.766000", "142009.769000", "142009.771000", "142009.774000", "142009.776000", "142009.787000", "142009.790000", "142009.793000", "142009.795000", "142009.798000", "142009.800000", "142009.803000", "142009.805000", "142009.808000", "142009.811000", "142009.813000", "142009.816000", "142009.818000", "142009.821000", "142009.823000", "142009.826000", "142049.718000", "142049.721000", "142049.724000", "142049.726000", "142049.729000", "142049.732000", "142049.734000", "142049.737000", "142049.739000", "142049.742000", "142049.744000", "142049.747000", "142049.749000", "142049.752000", "142049.754000", "142049.766000", "142049.769000", "142049.772000", "142049.774000", "142049.777000", "142129.718000", "142129.721000", "142129.724000", "142129.726000", "142129.729000", "142129.731000", "142129.734000", "142129.736000", "142129.753000", "142129.756000", "142129.758000", "142129.761000", "142129.763000", "142129.766000", "142129.768000", "142129.779000", "142129.782000", "142129.785000", "142129.787000", "142129.789000", "142209.719000", "142209.722000", "142209.725000", "142209.727000", "142209.730000", "142209.732000", "142209.735000", "142209.738000", "142209.740000", "142209.743000", "142209.745000", "142209.748000", "142209.750000", "142209.753000", "142209.755000", "142209.758000", "142209.761000", "142209.763000", "142209.766000", "142209.768000", "142249.719000", "142249.721000", "142249.724000", "142249.727000", "142249.729000", "142249.732000", "142249.734000", "142249.737000", "142249.739000", "142249.742000", "142249.744000", "142249.747000", "142249.749000", "142249.752000", "142249.754000", "142249.757000", "142249.759000", "142249.762000", "142249.765000", "142249.767000", "142329.719000", "142329.721000", "142329.724000", "142329.727000", "142329.729000", "142329.732000", "142329.734000", "142329.737000", "142329.739000", "142329.742000", "142329.745000", "142329.747000", "142329.750000", "142329.752000", "142329.755000", "142329.757000", "142329.760000", "142329.762000", "142329.765000", "142329.768000", "142409.719000", "142409.721000", "142409.724000", "142409.726000", "142409.729000", "142409.731000", "142409.734000", "142409.737000", "142409.739000", "142409.742000", "142409.744000", "142409.747000", "142409.749000", "142409.752000", "142409.755000", "142409.757000", "142409.760000", "142409.762000", "142409.765000", "142409.767000", "142449.720000", "142449.722000", "142449.725000", "142449.727000", "142449.730000", "142449.733000", "142449.735000", "142449.738000", "142449.740000", "142449.743000", "142449.745000", "142449.748000", "142449.750000", "142449.753000", "142449.755000", "142449.758000", "142449.760000", "142449.763000", "142449.766000", "142449.768000", "142529.718000", "142529.721000", "142529.724000", "142529.726000", "142529.729000", "142529.731000", "142529.734000", "142529.737000", "142529.739000", "142529.742000", "142529.744000", "142529.747000", "142529.749000", "142529.752000", "142529.755000", "142529.757000", "142529.760000", "142529.762000", "142529.765000", "142529.767000", "142609.719000", "142609.721000", "142609.724000", "142609.726000", "142609.729000", "142609.731000", "142609.734000", "142609.737000", "142609.739000", "142609.742000", "142609.744000", "142609.747000", "142609.749000", "142609.752000", "142609.754000", "142609.757000", "142609.760000", "142609.762000", "142609.765000", "142609.767000", "142649.720000", "142649.722000", "142649.725000", "142649.727000", "142649.730000", "142649.733000", "142649.735000", "142649.738000", "142649.740000", "142649.743000", "142649.745000", "142649.748000", "142649.750000", "142649.753000", "142649.756000", "142649.758000", "142649.761000", "142649.763000", "142649.766000", "142649.769000", "142729.719000", "142729.721000", "142729.724000", "142729.726000", "142729.729000", "142729.732000", "142729.734000", "142729.737000", "142729.739000", "142729.742000", "142729.744000", "142729.747000", "142729.749000", "142729.752000", "142729.755000", "142729.757000", "142729.760000", "142729.762000", "142729.765000", "142729.767000", "142809.718000", "142809.721000", "142809.724000", "142809.726000", "142809.729000", "142809.732000", "142809.734000", "142809.737000", "142809.739000", "142809.742000", "142809.749000", "142809.751000", "142809.754000", "142809.756000", "142809.759000", "142809.771000", "142809.773000", "142809.776000", "142809.778000", "142809.781000", "142829.719000", "142829.721000", "142829.724000", "142829.727000", "142829.729000", "142829.732000", "142829.734000", "142829.737000", "142829.739000", "142829.742000", "142909.720000", "142909.722000", "142909.725000", "142909.727000", "142909.730000", "142909.733000", "142909.735000", "142909.738000", "142909.740000", "142909.743000", "142909.745000", "142909.748000", "142909.751000", "142909.753000", "142909.756000", "142909.758000", "142909.761000", "142909.763000", "142909.766000", "142909.769000", "142949.719000", "142949.721000", "142949.724000", "142949.726000", "142949.729000", "142949.731000", "142949.734000", "142949.737000", "142949.739000", "142949.742000", "142949.744000", "142949.747000", "142949.750000", "142949.752000", "142949.755000", "142949.757000", "142949.760000", "142949.762000", "142949.765000", "142949.767000", "143029.719000", "143029.721000", "143029.724000", "143029.727000", "143029.729000", "143029.732000", "143029.734000", "143029.737000", "143029.739000", "143029.742000", "143029.744000", "143029.747000", "143029.749000", "143029.752000", "143029.755000", "143029.757000", "143029.760000", "143029.762000", "143029.765000", "143029.767000", "143109.719000", "143109.721000", "143109.724000", "143109.727000", "143109.729000", "143109.732000", "143109.734000", "143109.737000", "143109.739000", "143109.742000", "143109.744000", "143109.747000", "143109.750000", "143109.752000", "143109.755000", "143109.757000", "143109.760000", "143109.762000", "143109.765000", "143109.768000", "143149.720000", "143149.723000", "143149.725000", "143149.728000", "143149.730000", "143149.733000", "143149.735000", "143149.738000", "143149.740000", "143149.743000", "143149.745000", "143149.748000", "143149.751000", "143149.753000", "143149.756000", "143149.758000", "143149.761000", "143149.763000", "143149.766000", "143149.769000", "143204.418000", "143204.421000", "143204.424000", "143204.428000", "143204.431000", "143204.434000", "143204.437000"],
      "InstanceNumber": [1, 2, 3, 4, 5, 6, 7, 8, 9, 10, 11, 12, 13, 14, 15, 16, 17, 18, 19, 20, 21, 22, 23, 24, 25, 26, 27, 28, 29, 30, 31, 32, 33, 34, 35, 36, 37, 38, 39, 40, 41, 42, 43, 44, 45, 46, 47, 48, 49, 50, 51, 52, 53, 54, 55, 56, 57, 58, 59, 60, 61, 62, 63, 64, 65, 66, 67, 68, 69, 70, 71, 72, 73, 74, 75, 76, 77, 78, 79, 80, 81, 82, 83, 84, 85, 86, 87, 88, 89, 90, 91, 92, 93, 94, 95, 96, 97, 98, 99, 100, 101, 102, 103, 104, 105, 106, 107, 108, 109, 110, 111, 112, 113, 114, 115, 116, 117, 118, 119, 120, 121, 122, 123, 124, 125, 126, 127, 128, 129, 130, 131, 132, 133, 134, 135, 136, 137, 138, 139, 140, 141, 142, 143, 144, 145, 146, 147, 148, 149, 150, 151, 152, 153, 154, 155, 156, 157, 158, 159, 160, 161, 162, 163, 164, 165, 166, 167, 168, 169, 170, 171, 172, 173, 174, 175, 176, 177, 178, 179, 180, 181, 182, 183, 184, 185, 186, 187, 188, 189, 190, 191, 192, 193, 194, 195, 196, 197, 198, 199, 200, 201, 202, 203, 204, 205, 206, 207, 208, 209, 210, 211, 212, 213, 214, 215, 216, 217, 218, 219, 220, 221, 222, 223, 224, 225, 226, 227, 228, 229, 230, 231, 232, 233, 234, 235, 236, 237, 238, 239, 240, 241, 242, 243, 244, 245, 246, 247, 248, 249, 250, 251, 252, 253, 254, 255, 256, 257, 258, 259, 260, 261, 262, 263, 264, 265, 266, 267, 268, 269, 270, 271, 272, 273, 274, 275, 276, 277, 278, 279, 280, 281, 282, 283, 284, 285, 286, 287, 288, 289, 290, 291, 292, 293, 294, 295, 296, 297, 298, 299, 300, 301, 302, 303, 304, 305, 306, 307, 308, 309, 310, 311, 312, 313, 314, 315, 316, 317, 318, 319, 320, 321, 322, 323, 324, 325, 326, 327, 328, 329, 330, 331, 332, 333, 334, 335, 336, 337, 338, 339, 340, 341, 342, 343, 344, 345, 346, 347, 348, 349, 350, 351, 352, 353, 354, 355, 356, 357, 358, 359, 360, 361, 362, 363, 364, 365, 366, 367, 368, 369, 370, 371, 372, 373, 374, 375, 376, 377, 378, 379, 380, 381, 382, 383],
