{
  "AcquisitionMatrixPE": 96,
  "AcquisitionNumber": 1,
  "AcquisitionTime": "11:02:1.195000",
  "BandwidthPerPixelPhaseEncode": 20.425,
  "BaseResolution": 96,
  "BodyPartExamined": "BRAIN",
  "CoilCombinationMethod": "Sum of Squares",
  "ConsistencyInfo": "N4_VE11C_LATEST_20160120",
  "ConversionSoftware": "dcm2niix",
  "ConversionSoftwareVersion": "v1.0.20211006",
  "DerivedVendorReportedEchoSpacing": 0.000509996,
  "DeviceSerialNumber": "166054",
  "DwellTime": 2.3e-06,
  "EchoTime": 0.03,
  "EchoTrainLength": 96,
  "EffectiveEchoSpacing": 0.000509996,
  "FlipAngle": 75,
  "HeudiconvVersion": "0.11.3+d20220512",
  "ImageComments": "Unaliased MB2/PE2",
  "ImageOrientationPatientDICOM": [0.999488, -0.0268067, 0.0174671, 0.0307117, 0.95689, -0.288823],
  "ImageOrientationText": "Tra>Cor(-16.8)>Sag(0.5)",
  "ImageType": [
    "ORIGINAL",
    "PRIMARY",
    "M",
    "MB",
    "ND",
    "MOSAIC"
],
  "ImagingFrequency": 123.26,
  "InPlanePhaseEncodingDirectionDICOM": "COL",
  "InstitutionAddress": "Street StreetNo,City,District,IL,ZIP",
  "InstitutionName": "Weizmann Institute",
  "InstitutionalDepartmentName": "Department",
  "MRAcquisitionType": "2D",
  "MagneticFieldStrength": 3,
  "Manufacturer": "Siemens",
  "ManufacturersModelName": "Prisma",
  "MatrixCoilMode": "SENSE",
  "Modality": "MR",
  "MultibandAccelerationFactor": 2,
  "PartialFourier": 1,
  "PatientPosition": "HFS",
  "PercentPhaseFOV": 100,
  "PercentSampling": 100,
  "PhaseEncodingDirection": "j-",
  "PhaseEncodingSteps": 96,
  "PhaseResolution": 1,
  "PixelBandwidth": 2265,
  "ProcedureStepDescription": "Weizmann^Sobel",
  "ProtocolName": "EPI_PSAP_iso2.5",
  "PulseSequenceDetails": "%CustomerSeq%\\cmrr_mbep2d_bold",
  "ReceiveCoilActiveElements": "HEA;HEP",
  "ReceiveCoilName": "Head_32",
  "ReconMatrixPE": 96,
  "RepetitionTime": 2,
  "SAR": 0.0981627,
  "ScanOptions": "FS",
  "ScanningSequence": "EP",
  "SequenceName": "epfid2d1_96",
  "SequenceVariant": "SK\\SS",
  "SeriesDescription": "EPI_PSAP_iso2.5",
  "SeriesNumber": 6,
  "ShimSetting": [5914, -4070, -1843, 498, 92, -79, 36, 6],
  "SliceThickness": 2.5,
  "SliceTiming": [0, 0.92, 1.8375, 0.7775, 1.6975, 0.6375, 1.555, 0.495, 1.415, 0.3525, 1.2725, 0.2125, 1.1325, 0.07, 0.99, 1.91, 0.8475, 1.7675, 0.7075, 1.6275, 0.565, 1.485, 0.425, 1.3425, 0.2825, 1.2025, 0.1425, 1.06, 0, 0.92, 1.8375, 0.7775, 1.6975, 0.6375, 1.555, 0.495, 1.415, 0.3525, 1.2725, 0.2125, 1.1325, 0.07, 0.99, 1.91, 0.8475, 1.7675, 0.7075, 1.6275, 0.565, 1.485, 0.425, 1.3425, 0.2825, 1.2025, 0.1425, 1.06],
  "SoftwareVersions": "syngo MR E11",
  "SpacingBetweenSlices": 2.5,
  "StationName": "AWP166054",
  "TaskName": "PSAP",
  "TotalReadoutTime": 0.0484496,
  "TxRefAmp": 251,
  "VendorReportedEchoSpacing": 0.00051,
  "WipMemBlock": "2b2e5293-2b2e-4183-8bb0-694d764ad058||Sequence: R016 ve11c/master r/e634e98; Dec 19 2017 11:00:25 by eja",
  "dcmmeta_affine": [
    [-2.4987199306488037, 0.07677921652793884, 0.02242923155426979, 114.66993713378906],
    [0.06701678037643433, 2.3922247886657715, -0.7230282425880432, -90.14197540283203],
    [0.04366771876811981, 0.7220568060874939, 2.3930580615997314, -70.86231994628906],
    [0.0, 0.0, 0.0, 1.0]
],
  "dcmmeta_reorient_transform": [
    [0.0, -1.0, 0.0, 95.0],
    [1.0, 0.0, 0.0, 0.0],
    [0.0, 0.0, 1.0, 0.0],
    [0.0, 0.0, 0.0, 1.0]
],
  "dcmmeta_shape": [96, 96, 56, 507],
  "dcmmeta_slice_dim": 2,
  "dcmmeta_version": 0.6,
  "global": {
    "const": {
      "AcquisitionMatrix": [96, 0, 0, 96],
      "AngioFlag": "N",
      "BitsAllocated": 16,
      "BitsStored": 16,
      "BodyPartExamined": "BRAIN",
      "Columns": 768,
      "EchoNumbers": 1,
      "EchoTime": 30.0,
      "EchoTrainLength": 96,
      "FlipAngle": 75.0,
      "HighBit": 15,
      "ImageOrientationPatient": [0.9994880194362, -0.0268067126375, 0.01746708793891, 0.03071168741672, 0.95688987490086, -0.2888227130408],
      "ImagePositionPatient": [-987.33171563195, -918.38922755745, 225.67179880995],
      "ImageType": [
        "ORIGINAL",
        "PRIMARY",
        "M",
        "MB",
        "ND",
        "MOSAIC"
],
      "ImagedNucleus": "1H",
      "ImagingFrequency": 123.260135,
      "InPlanePhaseEncodingDirection": "COL",
      "MRAcquisitionType": "2D",
      "MagneticFieldStrength": 3.0,
      "Manufacturer": "SIEMENS",
      "ManufacturerModelName": "Prisma",
      "Modality": "MR",
      "NumberOfAverages": 1.0,
      "NumberOfPhaseEncodingSteps": 96,
      "PercentPhaseFieldOfView": 100.0,
      "PercentSampling": 100.0,
      "PerformedProcedureStepStartTime": "103511.625000",
      "PhotometricInterpretation": "MONOCHROME2",
      "PixelBandwidth": 2265.0,
      "PixelRepresentation": 0,
      "PixelSpacing": [2.5, 2.5],
      "ProtocolName": "EPI_PSAP_iso2.5",
      "RepetitionTime": 2000.0,
      "Rows": 768,
      "SAR": 0.09816268753444,
      "SamplesPerPixel": 1,
      "ScanOptions": "FS",
      "ScanningSequence": "EP",
      "SequenceName": "epfid2d1_96",
      "SequenceVariant": [
        "SK",
        "SS"
],
      "SeriesDescription": "EPI_PSAP_iso2.5",
      "SeriesNumber": 6,
      "SeriesTime": "110242.987000",
      "SliceLocation": -40.732200993256,
      "SliceThickness": 2.5,
      "SmallestImagePixelValue": 0,
      "SoftwareVersions": "syngo MR E11",
      "SpacingBetweenSlices": 2.5000000441259,
      "SpecificCharacterSet": "ISO_IR 100",
      "StudyID": "2",
      "StudyTime": "103511.532000",
      "TransmitCoilName": "Body",
      "VariableFlipAngleFlag": "N",
      "WindowCenterWidthExplanation": "Algo1",
      "dBdt": 0.0},
    "slices": {}
  },
  "time": {
    "samples": {
      "AcquisitionNumber": [1, 2, 3, 4, 5, 6, 7, 8, 9, 10, 11, 12, 13, 14, 15, 16, 17, 18, 19, 20, 21, 22, 23, 24, 25, 26, 27, 28, 29, 30, 31, 32, 33, 34, 35, 36, 37, 38, 39, 40, 41, 42, 43, 44, 45, 46, 47, 48, 49, 50, 51, 52, 53, 54, 55, 56, 57, 58, 59, 60, 61, 62, 63, 64, 65, 66, 67, 68, 69, 70, 71, 72, 73, 74, 75, 76, 77, 78, 79, 80, 81, 82, 83, 84, 85, 86, 87, 88, 89, 90, 91, 92, 93, 94, 95, 96, 97, 98, 99, 100, 101, 102, 103, 104, 105, 106, 107, 108, 109, 110, 111, 112, 113, 114, 115, 116, 117, 118, 119, 120, 121, 122, 123, 124, 125, 126, 127, 128, 129, 130, 131, 132, 133, 134, 135, 136, 137, 138, 139, 140, 141, 142, 143, 144, 145, 146, 147, 148, 149, 150, 151, 152, 153, 154, 155, 156, 157, 158, 159, 160, 161, 162, 163, 164, 165, 166, 167, 168, 169, 170, 171, 172, 173, 174, 175, 176, 177, 178, 179, 180, 181, 182, 183, 184, 185, 186, 187, 188, 189, 190, 191, 192, 193, 194, 195, 196, 197, 198, 199, 200, 201, 202, 203, 204, 205, 206, 207, 208, 209, 210, 211, 212, 213, 214, 215, 216, 217, 218, 219, 220, 221, 222, 223, 224, 225, 226, 227, 228, 229, 230, 231, 232, 233, 234, 235, 236, 237, 238, 239, 240, 241, 242, 243, 244, 245, 246, 247, 248, 249, 250, 251, 252, 253, 254, 255, 256, 257, 258, 259, 260, 261, 262, 263, 264, 265, 266, 267, 268, 269, 270, 271, 272, 273, 274, 275, 276, 277, 278, 279, 280, 281, 282, 283, 284, 285, 286, 287, 288, 289, 290, 291, 292, 293, 294, 295, 296, 297, 298, 299, 300, 301, 302, 303, 304, 305, 306, 307, 308, 309, 310, 311, 312, 313, 314, 315, 316, 317, 318, 319, 320, 321, 322, 323, 324, 325, 326, 327, 328, 329, 330, 331, 332, 333, 334, 335, 336, 337, 338, 339, 340, 341, 342, 343, 344, 345, 346, 347, 348, 349, 350, 351, 352, 353, 354, 355, 356, 357, 358, 359, 360, 361, 362, 363, 364, 365, 366, 367, 368, 369, 370, 371, 372, 373, 374, 375, 376, 377, 378, 379, 380, 381, 382, 383, 384, 385, 386, 387, 388, 389, 390, 391, 392, 393, 394, 395, 396, 397, 398, 399, 400, 401, 402, 403, 404, 405, 406, 407, 408, 409, 410, 411, 412, 413, 414, 415, 416, 417, 418, 419, 420, 421, 422, 423, 424, 425, 426, 427, 428, 429, 430, 431, 432, 433, 434, 435, 436, 437, 438, 439, 440, 441, 442, 443, 444, 445, 446, 447, 448, 449, 450, 451, 452, 453, 454, 455, 456, 457, 458, 459, 460, 461, 462, 463, 464, 465, 466, 467, 468, 469, 470, 471, 472, 473, 474, 475, 476, 477, 478, 479, 480, 481, 482, 483, 484, 485, 486, 487, 488, 489, 490, 491, 492, 493, 494, 495, 496, 497, 498, 499, 500, 501, 502, 503, 504, 505, 506, 507],
      "AcquisitionTime": ["110201.195000", "110203.195000", "110205.195000", "110207.195000", "110209.195000", "110211.195000", "110213.195000", "110215.195000", "110217.195000", "110219.195000", "110221.195000", "110223.195000", "110225.195000", "110227.195000", "110229.195000", "110231.195000", "110233.195000", "110235.195000", "110237.195000", "110239.195000", "110241.195000", "110243.195000", "110245.195000", "110247.195000", "110249.195000", "110251.195000", "110253.195000", "110255.195000", "110257.195000", "110259.195000", "110301.195000", "110303.195000", "110305.195000", "110307.195000", "110309.195000", "110311.195000", "110313.195000", "110315.195000", "110317.195000", "110319.195000", "110321.195000", "110323.195000", "110325.195000", "110327.195000", "110329.195000", "110331.195000", "110333.195000", "110335.195000", "110337.195000", "110339.195000", "110341.195000", "110343.195000", "110345.195000", "110347.195000", "110349.195000", "110351.195000", "110353.195000", "110355.195000", "110357.195000", "110359.195000", "110401.195000", "110403.195000", "110405.195000", "110407.195000", "110409.195000", "110411.195000", "110413.195000", "110415.195000", "110417.195000", "110419.195000", "110421.195000", "110423.195000", "110425.195000", "110427.195000", "110429.195000", "110431.195000", "110433.195000", "110435.195000", "110437.195000", "110439.195000", "110441.195000", "110443.195000", "110445.195000", "110447.195000", "110449.195000", "110451.195000", "110453.195000", "110455.195000", "110457.195000", "110459.195000", "110501.195000", "110503.195000", "110505.195000", "110507.195000", "110509.195000", "110511.195000", "110513.195000", "110515.195000", "110517.195000", "110519.195000", "110521.195000", "110523.195000", "110525.195000", "110527.195000", "110529.195000", "110531.195000", "110533.195000", "110535.195000", "110537.195000", "110539.195000", "110541.195000", "110543.195000", "110545.195000", "110547.195000", "110549.195000", "110551.195000", "110553.195000", "110555.195000", "110557.195000", "110559.195000", "110601.195000", "110603.195000", "110605.195000", "110607.195000", "110609.195000", "110611.195000", "110613.195000", "110615.195000", "110617.195000", "110619.195000", "110621.195000", "110623.195000", "110625.195000", "110627.195000", "110629.195000", "110631.195000", "110633.195000", "110635.195000", "110637.195000", "110639.195000", "110641.195000", "110643.195000", "110645.195000", "110647.195000", "110649.195000", "110651.195000", "110653.195000", "110655.195000", "110657.195000", "110659.195000", "110701.195000", "110703.195000", "110705.195000", "110707.195000", "110709.195000", "110711.195000", "110713.195000", "110715.195000", "110717.195000", "110719.195000", "110721.195000", "110723.195000", "110725.195000", "110727.195000", "110729.195000", "110731.195000", "110733.195000", "110735.195000", "110737.195000", "110739.195000", "110741.195000", "110743.195000", "110745.195000", "110747.195000", "110749.195000", "110751.195000", "110753.195000", "110755.195000", "110757.195000", "110759.195000", "110801.195000", "110803.195000", "110805.195000", "110807.195000", "110809.195000", "110811.195000", "110813.195000", "110815.195000", "110817.195000", "110819.195000", "110821.195000", "110823.195000", "110825.195000", "110827.195000", "110829.195000", "110831.195000", "110833.195000", "110835.195000", "110837.195000", "110839.195000", "110841.195000", "110843.195000", "110845.195000", "110847.195000", "110849.195000", "110851.195000", "110853.195000", "110855.195000", "110857.195000", "110859.195000", "110901.195000", "110903.195000", "110905.195000", "110907.195000", "110909.195000", "110911.195000", "110913.195000", "110915.195000", "110917.195000", "110919.195000", "110921.195000", "110923.195000", "110925.195000", "110927.195000", "110929.195000", "110931.195000", "110933.195000", "110935.195000", "110937.195000", "110939.195000", "110941.195000", "110943.195000", "110945.195000", "110947.195000", "110949.195000", "110951.195000", "110953.195000", "110955.195000", "110957.195000", "110959.195000", "111001.195000", "111003.195000", "111005.195000", "111007.195000", "111009.195000", "111011.195000", "111013.195000", "111015.195000", "111017.195000", "111019.195000", "111021.195000", "111023.195000", "111025.195000", "111027.195000", "111029.195000", "111031.195000", "111033.195000", "111035.195000", "111037.195000", "111039.195000", "111041.195000", "111043.195000", "111045.195000", "111047.195000", "111049.195000", "111051.195000", "111053.195000", "111055.195000", "111057.195000", "111059.195000", "111101.195000", "111103.195000", "111105.195000", "111107.195000", "111109.195000", "111111.195000", "111113.195000", "111115.195000", "111117.195000", "111119.195000", "111121.195000", "111123.195000", "111125.195000", "111127.195000", "111129.195000", "111131.195000", "111133.195000", "111135.195000", "111137.195000", "111139.195000", "111141.195000", "111143.195000", "111145.195000", "111147.195000", "111149.195000", "111151.195000", "111153.195000", "111155.195000", "111157.195000", "111159.195000", "111201.195000", "111203.195000", "111205.195000", "111207.195000", "111209.195000", "111211.195000", "111213.195000", "111215.195000", "111217.195000", "111219.195000", "111221.195000", "111223.195000", "111225.195000", "111227.195000", "111229.195000", "111231.195000", "111233.195000", "111235.195000", "111237.195000", "111239.195000", "111241.195000", "111243.195000", "111245.195000", "111247.195000", "111249.195000", "111251.195000", "111253.195000", "111255.195000", "111257.195000", "111259.195000", "111301.195000", "111303.195000", "111305.195000", "111307.195000", "111309.195000", "111311.195000", "111313.195000", "111315.195000", "111317.195000", "111319.195000", "111321.195000", "111323.195000", "111325.195000", "111327.195000", "111329.195000", "111331.195000", "111333.195000", "111335.195000", "111337.195000", "111339.195000", "111341.195000", "111343.195000", "111345.195000", "111347.195000", "111349.195000", "111351.195000", "111353.195000", "111355.195000", "111357.195000", "111359.195000", "111401.195000", "111403.195000", "111405.195000", "111407.195000", "111409.195000", "111411.195000", "111413.195000", "111415.195000", "111417.195000", "111419.195000", "111421.195000", "111423.195000", "111425.195000", "111427.195000", "111429.195000", "111431.195000", "111433.195000", "111435.195000", "111437.195000", "111439.195000", "111441.195000", "111443.195000", "111445.195000", "111447.195000", "111449.195000", "111451.195000", "111453.195000", "111455.195000", "111457.195000", "111459.195000", "111501.195000", "111503.195000", "111505.195000", "111507.195000", "111509.195000", "111511.195000", "111513.195000", "111515.195000", "111517.195000", "111519.195000", "111521.195000", "111523.195000", "111525.195000", "111527.195000", "111529.195000", "111531.195000", "111533.195000", "111535.195000", "111537.195000", "111539.195000", "111541.195000", "111543.195000", "111545.195000", "111547.195000", "111549.195000", "111551.195000", "111553.195000", "111555.195000", "111557.195000", "111559.195000", "111601.195000", "111603.195000", "111605.195000", "111607.195000", "111609.195000", "111611.195000", "111613.195000", "111615.195000", "111617.195000", "111619.195000", "111621.195000", "111623.195000", "111625.195000", "111627.195000", "111629.195000", "111631.195000", "111633.195000", "111635.195000", "111637.195000", "111639.195000", "111641.195000", "111643.195000", "111645.195000", "111647.195000", "111649.195000", "111651.195000", "111653.195000", "111655.195000", "111657.195000", "111659.195000", "111701.195000", "111703.195000", "111705.195000", "111707.195000", "111709.195000", "111711.195000", "111713.195000", "111715.195000", "111717.195000", "111719.195000", "111721.195000", "111723.195000", "111725.195000", "111727.195000", "111729.195000", "111731.195000", "111733.195000", "111735.195000", "111737.195000", "111739.195000", "111741.195000", "111743.195000", "111745.195000", "111747.195000", "111749.195000", "111751.195000", "111753.195000", "111755.195000", "111757.195000", "111759.195000", "111801.195000", "111803.195000", "111805.195000", "111807.195000", "111809.195000", "111811.195000", "111813.195000", "111815.195000", "111817.195000", "111819.195000", "111821.195000", "111823.195000", "111825.195000", "111827.195000", "111829.195000", "111831.195000", "111833.195000", "111835.195000", "111837.195000", "111839.195000", "111841.195000", "111843.195000", "111845.195000", "111847.195000", "111849.195000", "111851.195000", "111853.195000"],
      "ContentTime": ["110242.989000", "110242.992000", "110242.995000", "110242.998000", "110243.002000", "110243.004000", "110243.007000", "110243.010000", "110243.013000", "110243.020000", "110243.023000", "110243.026000", "110243.039000", "110243.042000", "110243.045000", "110243.050000", "110243.053000", "110243.058000", "110243.062000", "110243.065000", "110322.941000", "110322.944000", "110322.947000", "110322.950000", "110322.953000", "110322.956000", "110322.959000", "110322.961000", "110322.964000", "110322.969000", "110322.972000", "110322.974000", "110322.977000", "110322.980000", "110322.982000", "110322.985000", "110322.987000", "110322.990000", "110322.992000", "110322.995000", "110342.942000", "110342.944000", "110342.947000", "110342.949000", "110342.952000", "110342.955000", "110342.957000", "110342.960000", "110342.962000", "110342.965000", "110422.942000", "110422.946000", "110422.948000", "110422.951000", "110422.953000", "110422.956000", "110422.959000", "110422.961000", "110422.964000", "110422.966000", "110422.969000", "110422.972000", "110422.974000", "110422.977000", "110422.979000", "110422.982000", "110422.989000", "110422.992000", "110422.994000", "110422.997000", "110502.941000", "110502.953000", "110502.955000", "110502.958000", "110502.960000", "110502.963000", "110502.965000", "110502.968000", "110502.974000", "110502.976000", "110502.979000", "110502.981000", "110502.984000", "110502.987000", "110502.989000", "110502.992000", "110502.994000", "110502.997000", "110503.000000", "110503.003000", "110542.942000", "110542.944000", "110542.947000", "110542.949000", "110542.952000", "110542.972000", "110542.975000", "110542.978000", "110542.980000", "110542.983000", "110542.985000", "110542.988000", "110542.990000", "110542.993000", "110542.995000", "110542.998000", "110543.001000", "110543.004000", "110543.007000", "110543.009000", "110622.943000", "110622.945000", "110622.948000", "110622.951000", "110622.953000", "110622.956000", "110622.958000", "110622.961000", "110622.963000", "110622.966000", "110622.968000", "110622.971000", "110622.973000", "110622.976000", "110622.979000", "110622.981000", "110622.984000", "110622.986000", "110622.989000", "110622.991000", "110702.942000", "110702.944000", "110702.947000", "110702.950000", "110702.952000", "110702.955000", "110702.957000", "110702.960000", "110702.962000", "110702.965000", "110702.967000", "110702.970000", "110702.973000", "110702.975000", "110702.978000", "110702.980000", "110702.983000", "110702.985000", "110702.988000", "110702.990000", "110742.942000", "110742.944000", "110742.947000", "110742.950000", "110742.952000", "110742.955000", "110742.957000", "110742.960000", "110742.962000", "110742.965000", "110742.967000", "110742.970000", "110742.972000", "110742.975000", "110742.978000", "110742.980000", "110742.983000", "110742.985000", "110742.988000", "110742.990000", "110822.942000", "110822.944000", "110822.947000", "110822.949000", "110822.952000", "110822.954000", "110822.957000", "110822.960000", "110822.962000", "110822.965000", "110822.967000", "110822.970000", "110822.972000", "110822.975000", "110822.978000", "110822.980000", "110822.983000", "110822.985000", "110822.988000", "110822.990000", "110902.943000", "110902.945000", "110902.948000", "110902.951000", "110902.953000", "110902.956000", "110902.958000", "110902.961000", "110902.964000", "110902.966000", "110902.969000", "110902.971000", "110902.974000", "110902.977000", "110902.979000", "110902.982000", "110902.984000", "110902.987000", "110902.990000", "110902.992000", "110942.942000", "110942.944000", "110942.947000", "110942.950000", "110942.952000", "110942.955000", "110942.957000", "110942.960000", "110942.962000", "110942.965000", "110942.968000", "110942.970000", "110942.973000", "110942.975000", "110942.978000", "110942.981000", "110942.983000", "110942.986000", "110942.988000", "110942.991000", "111022.942000", "111022.944000", "111022.947000", "111022.950000", "111022.952000", "111022.955000", "111022.958000", "111022.960000", "111022.963000", "111022.965000", "111022.968000", "111022.970000", "111022.973000", "111022.975000", "111022.978000", "111022.980000", "111022.983000", "111022.986000", "111022.988000", "111022.991000", "111102.943000", "111102.945000", "111102.948000", "111102.950000", "111102.953000", "111102.956000", "111102.958000", "111102.961000", "111102.963000", "111102.966000", "111102.968000", "111102.971000", "111102.974000", "111102.982000", "111102.984000", "111102.987000", "111102.990000", "111102.992000", "111102.995000", "111102.997000", "111142.942000", "111142.944000", "111142.947000", "111142.949000", "111142.952000", "111142.955000", "111142.957000", "111142.960000", "111142.962000", "111142.965000", "111142.967000", "111142.970000", "111142.973000", "111142.975000", "111142.978000", "111142.980000", "111142.983000", "111142.985000", "111142.988000", "111142.990000", "111222.942000", "111222.944000", "111222.947000", "111222.949000", "111222.952000", "111222.955000", "111222.957000", "111222.960000", "111222.962000", "111222.965000", "111222.967000", "111222.970000", "111222.972000", "111222.975000", "111222.978000", "111222.980000", "111222.983000", "111222.985000", "111222.988000", "111222.991000", "111302.942000", "111302.945000", "111302.947000", "111302.950000", "111302.952000", "111302.955000", "111302.957000", "111302.960000", "111302.962000", "111302.965000", "111302.968000", "111302.970000", "111302.973000", "111302.975000", "111302.978000", "111302.980000", "111302.983000", "111302.985000", "111302.988000", "111302.990000", "111322.943000", "111322.946000", "111322.948000", "111322.951000", "111322.953000", "111322.956000", "111322.958000", "111322.961000", "111322.964000", "111322.966000", "111402.942000", "111402.944000", "111402.947000", "111402.950000", "111402.952000", "111402.955000", "111402.957000", "111402.960000", "111402.962000", "111402.965000", "111402.968000", "111402.970000", "111402.973000", "111402.975000", "111402.978000", "111402.980000", "111402.983000", "111402.985000", "111402.988000", "111402.991000", "111442.942000", "111442.944000", "111442.947000", "111442.950000", "111442.952000", "111442.955000", "111442.957000", "111442.960000", "111442.963000", "111442.965000", "111442.968000", "111442.970000", "111442.973000", "111442.975000", "111442.978000", "111442.981000", "111442.983000", "111442.986000", "111442.988000", "111442.991000", "111522.942000", "111522.944000", "111522.947000", "111522.949000", "111522.952000", "111522.955000", "111522.957000", "111522.960000", "111522.962000", "111522.965000", "111522.968000", "111522.970000", "111522.973000", "111522.975000", "111522.978000", "111522.981000", "111522.983000", "111522.986000", "111522.988000", "111522.991000", "111602.943000", "111602.945000", "111602.948000", "111602.951000", "111602.953000", "111602.956000", "111602.959000", "111602.961000", "111602.964000", "111602.966000", "111602.969000", "111602.972000", "111602.974000", "111602.977000", "111602.980000", "111602.982000", "111602.985000", "111602.988000", "111602.990000", "111602.993000", "111642.942000", "111642.944000", "111642.947000", "111642.950000", "111642.952000", "111642.955000", "111642.957000", "111642.960000", "111642.963000", "111642.965000", "111642.968000", "111642.970000", "111642.973000", "111642.975000", "111642.978000", "111642.981000", "111642.983000", "111642.986000", "111642.988000", "111642.991000", "111722.942000", "111722.945000", "111722.947000", "111722.950000", "111722.952000", "111722.955000", "111722.958000", "111722.961000", "111722.963000", "111722.966000", "111722.969000", "111722.971000", "111722.974000", "111722.976000", "111722.979000", "111722.982000", "111722.984000", "111722.987000", "111722.990000", "111722.992000", "111802.943000", "111802.946000", "111802.948000", "111802.951000", "111802.954000", "111802.956000", "111802.959000", "111802.962000", "111802.964000", "111802.967000", "111802.970000", "111802.972000", "111802.975000", "111802.978000", "111802.980000", "111802.983000", "111802.986000", "111802.988000", "111802.991000", "111802.993000", "111842.942000", "111842.945000", "111842.948000", "111842.950000", "111842.953000", "111842.956000", "111842.958000", "111842.961000", "111842.964000", "111842.966000", "111842.969000", "111842.971000", "111842.974000", "111842.976000", "111842.979000", "111842.982000", "111842.984000", "111842.987000", "111842.990000", "111842.992000", "111856.271000", "111856.274000", "111856.277000", "111856.279000", "111856.282000", "111856.285000", "111856.287000"],
