{
  "AcquisitionMatrixPE": 96,
  "AcquisitionNumber": 1,
  "AcquisitionTime": "15:32:46.570000",
  "BandwidthPerPixelPhaseEncode": 20.425,
  "BaseResolution": 96,
  "BodyPartExamined": "BRAIN",
  "CoilCombinationMethod": "Sum of Squares",
  "ConsistencyInfo": "N4_VE11C_LATEST_20160120",
  "ConversionSoftware": "dcm2niix",
  "ConversionSoftwareVersion": "v1.0.20211006",
  "DerivedVendorReportedEchoSpacing": 0.000509996,
  "DeviceSerialNumber": "166054",
  "DwellTime": 2.3e-06,
  "EchoTime": 0.03,
  "EchoTrainLength": 96,
  "EffectiveEchoSpacing": 0.000509996,
  "FlipAngle": 75,
  "HeudiconvVersion": "0.11.3+d20220512",
  "ImageComments": "Unaliased MB2/PE2",
  "ImageOrientationPatientDICOM": [0.998642, 0.04979, -0.0153365, -0.0516376, 0.906881, -0.41821],
  "ImageOrientationText": "Tra>Cor(-24.7)>Sag(0.4)",
  "ImageType": [
    "ORIGINAL",
    "PRIMARY",
    "M",
    "MB",
    "ND",
    "MOSAIC"
],
  "ImagingFrequency": 123.26,
  "InPlanePhaseEncodingDirectionDICOM": "COL",
  "InstitutionAddress": "Street StreetNo,City,District,IL,ZIP",
  "InstitutionName": "Weizmann Institute",
  "InstitutionalDepartmentName": "Department",
  "MRAcquisitionType": "2D",
  "MagneticFieldStrength": 3,
  "Manufacturer": "Siemens",
  "ManufacturersModelName": "Prisma",
  "MatrixCoilMode": "SENSE",
  "Modality": "MR",
  "MultibandAccelerationFactor": 2,
  "PartialFourier": 1,
  "PatientPosition": "HFS",
  "PercentPhaseFOV": 100,
  "PercentSampling": 100,
  "PhaseEncodingDirection": "j-",
  "PhaseEncodingSteps": 96,
  "PhaseResolution": 1,
  "PixelBandwidth": 2265,
  "ProcedureStepDescription": "Weizmann^Sobel",
  "ProtocolName": "EPI_PSAP_iso2.5",
  "PulseSequenceDetails": "%CustomerSeq%\\cmrr_mbep2d_bold",
  "ReceiveCoilActiveElements": "HEA;HEP",
  "ReceiveCoilName": "Head_32",
  "ReconMatrixPE": 96,
  "RepetitionTime": 2,
  "SAR": 0.110588,
  "ScanOptions": "FS",
  "ScanningSequence": "EP",
  "SequenceName": "epfid2d1_96",
  "SequenceVariant": "SK\\SS",
  "SeriesDescription": "EPI_PSAP_iso2.5",
  "SeriesNumber": 6,
  "ShimSetting": [5914, -4041, -1921, 408, 18, -83, -194, 0],
  "SliceThickness": 2.5,
  "SliceTiming": [0, 0.92, 1.8375, 0.7775, 1.6975, 0.6375, 1.555, 0.495, 1.415, 0.3525, 1.2725, 0.2125, 1.1325, 0.07, 0.99, 1.91, 0.8475, 1.7675, 0.7075, 1.6275, 0.565, 1.485, 0.425, 1.3425, 0.2825, 1.2025, 0.1425, 1.06, 0, 0.92, 1.8375, 0.7775, 1.6975, 0.6375, 1.555, 0.495, 1.415, 0.3525, 1.2725, 0.2125, 1.1325, 0.07, 0.99, 1.91, 0.8475, 1.7675, 0.7075, 1.6275, 0.565, 1.485, 0.425, 1.3425, 0.2825, 1.2025, 0.1425, 1.06],
  "SoftwareVersions": "syngo MR E11",
  "SpacingBetweenSlices": 2.5,
  "StationName": "AWP166054",
  "TaskName": "PSAP",
  "TotalReadoutTime": 0.0484496,
  "TxRefAmp": 254.8,
  "VendorReportedEchoSpacing": 0.00051,
  "WipMemBlock": "f9888af2-a5a3-4d45-af08-edeea207c929||Sequence: R016 ve11c/master r/e634e98; Dec 19 2017 11:00:25 by eja",
  "dcmmeta_affine": [
    [-2.4966049194335938, -0.1290939748287201, 0.01728569157421589, 124.2935562133789],
    [-0.1244748905301094, 2.2672035694122314, -1.0460853576660156, -70.43570709228516],
    [-0.038341253995895386, 1.045525312423706, 2.270552158355713, -135.5673065185547],
    [0.0, 0.0, 0.0, 1.0]
],
  "dcmmeta_reorient_transform": [
    [0.0, -1.0, 0.0, 95.0],
    [1.0, 0.0, 0.0, 0.0],
    [0.0, 0.0, 1.0, 0.0],
    [0.0, 0.0, 0.0, 1.0]
],
  "dcmmeta_shape": [96, 96, 56, 468],
  "dcmmeta_slice_dim": 2,
  "dcmmeta_version": 0.6,
  "global": {
    "const": {
      "AcquisitionMatrix": [96, 0, 0, 96],
      "AngioFlag": "N",
      "BitsAllocated": 16,
      "BitsStored": 16,
      "BodyPartExamined": "BRAIN",
      "Columns": 768,
      "EchoNumbers": 1,
      "EchoTime": 30.0,
      "EchoTrainLength": 96,
      "FlipAngle": 75.0,
      "HighBit": 15,
      "ImageOrientationPatient": [0.99864195381275, 0.04978995667496, -0.0153365021879, -0.0516375916236, 0.90688138197391, -0.4182101363674],
      "ImagePositionPatient": [-907.51329206787, -948.55254494789, 327.93678290071],
      "ImageType": [
        "ORIGINAL",
        "PRIMARY",
        "M",
        "MB",
        "ND",
        "MOSAIC"
],
      "ImagedNucleus": "1H",
      "ImagingFrequency": 123.260416,
      "InPlanePhaseEncodingDirection": "COL",
      "MRAcquisitionType": "2D",
      "MagneticFieldStrength": 3.0,
      "Manufacturer": "SIEMENS",
      "ManufacturerModelName": "Prisma",
      "Modality": "MR",
      "NumberOfAverages": 1.0,
      "NumberOfPhaseEncodingSteps": 96,
      "PercentPhaseFieldOfView": 100.0,
      "PercentSampling": 100.0,
      "PerformedProcedureStepStartTime": "144159.392000",
      "PhotometricInterpretation": "MONOCHROME2",
      "PixelBandwidth": 2265.0,
      "PixelRepresentation": 0,
      "PixelSpacing": [2.5, 2.5],
      "ProtocolName": "EPI_PSAP_iso2.5",
      "RepetitionTime": 2000.0,
      "Rows": 768,
      "SAR": 0.11058830717236,
      "SamplesPerPixel": 1,
      "ScanOptions": "FS",
      "ScanningSequence": "EP",
      "SequenceName": "epfid2d1_96",
      "SequenceVariant": [
        "SK",
        "SS"
],
      "SeriesDescription": "EPI_PSAP_iso2.5",
      "SeriesNumber": 6,
      "SeriesTime": "153336.609000",
      "SliceLocation": -92.792942421701,
      "SliceThickness": 2.5,
      "SmallestImagePixelValue": 0,
      "SoftwareVersions": "syngo MR E11",
      "SpacingBetweenSlices": 2.5000000564914,
      "SpecificCharacterSet": "ISO_IR 100",
      "StudyID": "1",
      "StudyTime": "144159.319000",
      "TransmitCoilName": "Body",
      "VariableFlipAngleFlag": "N",
      "WindowCenterWidthExplanation": "Algo1",
      "dBdt": 0.0},
    "slices": {}
  },
  "time": {
    "samples": {
      "AcquisitionNumber": [1, 2, 3, 4, 5, 6, 7, 8, 9, 10, 11, 12, 13, 14, 15, 16, 17, 18, 19, 20, 21, 22, 23, 24, 25, 26, 27, 28, 29, 30, 31, 32, 33, 34, 35, 36, 37, 38, 39, 40, 41, 42, 43, 44, 45, 46, 47, 48, 49, 50, 51, 52, 53, 54, 55, 56, 57, 58, 59, 60, 61, 62, 63, 64, 65, 66, 67, 68, 69, 70, 71, 72, 73, 74, 75, 76, 77, 78, 79, 80, 81, 82, 83, 84, 85, 86, 87, 88, 89, 90, 91, 92, 93, 94, 95, 96, 97, 98, 99, 100, 101, 102, 103, 104, 105, 106, 107, 108, 109, 110, 111, 112, 113, 114, 115, 116, 117, 118, 119, 120, 121, 122, 123, 124, 125, 126, 127, 128, 129, 130, 131, 132, 133, 134, 135, 136, 137, 138, 139, 140, 141, 142, 143, 144, 145, 146, 147, 148, 149, 150, 151, 152, 153, 154, 155, 156, 157, 158, 159, 160, 161, 162, 163, 164, 165, 166, 167, 168, 169, 170, 171, 172, 173, 174, 175, 176, 177, 178, 179, 180, 181, 182, 183, 184, 185, 186, 187, 188, 189, 190, 191, 192, 193, 194, 195, 196, 197, 198, 199, 200, 201, 202, 203, 204, 205, 206, 207, 208, 209, 210, 211, 212, 213, 214, 215, 216, 217, 218, 219, 220, 221, 222, 223, 224, 225, 226, 227, 228, 229, 230, 231, 232, 233, 234, 235, 236, 237, 238, 239, 240, 241, 242, 243, 244, 245, 246, 247, 248, 249, 250, 251, 252, 253, 254, 255, 256, 257, 258, 259, 260, 261, 262, 263, 264, 265, 266, 267, 268, 269, 270, 271, 272, 273, 274, 275, 276, 277, 278, 279, 280, 281, 282, 283, 284, 285, 286, 287, 288, 289, 290, 291, 292, 293, 294, 295, 296, 297, 298, 299, 300, 301, 302, 303, 304, 305, 306, 307, 308, 309, 310, 311, 312, 313, 314, 315, 316, 317, 318, 319, 320, 321, 322, 323, 324, 325, 326, 327, 328, 329, 330, 331, 332, 333, 334, 335, 336, 337, 338, 339, 340, 341, 342, 343, 344, 345, 346, 347, 348, 349, 350, 351, 352, 353, 354, 355, 356, 357, 358, 359, 360, 361, 362, 363, 364, 365, 366, 367, 368, 369, 370, 371, 372, 373, 374, 375, 376, 377, 378, 379, 380, 381, 382, 383, 384, 385, 386, 387, 388, 389, 390, 391, 392, 393, 394, 395, 396, 397, 398, 399, 400, 401, 402, 403, 404, 405, 406, 407, 408, 409, 410, 411, 412, 413, 414, 415, 416, 417, 418, 419, 420, 421, 422, 423, 424, 425, 426, 427, 428, 429, 430, 431, 432, 433, 434, 435, 436, 437, 438, 439, 440, 441, 442, 443, 444, 445, 446, 447, 448, 449, 450, 451, 452, 453, 454, 455, 456, 457, 458, 459, 460, 461, 462, 463, 464, 465, 466, 467, 468],
      "AcquisitionTime": ["153246.570000", "153248.570000", "153250.570000", "153252.570000", "153254.570000", "153256.570000", "153258.570000", "153300.570000", "153302.570000", "153304.570000", "153306.570000", "153308.570000", "153310.570000", "153312.570000", "153314.570000", "153316.570000", "153318.570000", "153320.570000", "153322.570000", "153324.570000", "153326.570000", "153328.570000", "153330.570000", "153332.570000", "153334.570000", "153336.570000", "153338.570000", "153340.570000", "153342.570000", "153344.570000", "153346.570000", "153348.570000", "153350.570000", "153352.570000", "153354.570000", "153356.570000", "153358.570000", "153400.570000", "153402.570000", "153404.570000", "153406.570000", "153408.570000", "153410.570000", "153412.570000", "153414.570000", "153416.570000", "153418.570000", "153420.570000", "153422.570000", "153424.570000", "153426.570000", "153428.570000", "153430.570000", "153432.570000", "153434.570000", "153436.570000", "153438.570000", "153440.570000", "153442.570000", "153444.570000", "153446.570000", "153448.570000", "153450.570000", "153452.570000", "153454.570000", "153456.570000", "153458.570000", "153500.570000", "153502.570000", "153504.570000", "153506.570000", "153508.570000", "153510.570000", "153512.570000", "153514.570000", "153516.570000", "153518.570000", "153520.570000", "153522.570000", "153524.570000", "153526.570000", "153528.570000", "153530.570000", "153532.570000", "153534.570000", "153536.570000", "153538.570000", "153540.570000", "153542.570000", "153544.570000", "153546.570000", "153548.570000", "153550.570000", "153552.570000", "153554.570000", "153556.570000", "153558.570000", "153600.570000", "153602.570000", "153604.570000", "153606.570000", "153608.570000", "153610.570000", "153612.570000", "153614.570000", "153616.570000", "153618.570000", "153620.570000", "153622.570000", "153624.570000", "153626.570000", "153628.570000", "153630.570000", "153632.570000", "153634.570000", "153636.570000", "153638.570000", "153640.570000", "153642.570000", "153644.570000", "153646.570000", "153648.570000", "153650.570000", "153652.570000", "153654.570000", "153656.570000", "153658.570000", "153700.570000", "153702.570000", "153704.570000", "153706.570000", "153708.570000", "153710.570000", "153712.570000", "153714.570000", "153716.570000", "153718.570000", "153720.570000", "153722.570000", "153724.570000", "153726.570000", "153728.570000", "153730.570000", "153732.570000", "153734.570000", "153736.570000", "153738.570000", "153740.570000", "153742.570000", "153744.570000", "153746.570000", "153748.570000", "153750.570000", "153752.570000", "153754.570000", "153756.570000", "153758.570000", "153800.570000", "153802.570000", "153804.570000", "153806.570000", "153808.570000", "153810.570000", "153812.570000", "153814.570000", "153816.570000", "153818.570000", "153820.570000", "153822.570000", "153824.570000", "153826.570000", "153828.570000", "153830.570000", "153832.570000", "153834.570000", "153836.570000", "153838.570000", "153840.570000", "153842.570000", "153844.570000", "153846.570000", "153848.570000", "153850.570000", "153852.570000", "153854.570000", "153856.570000", "153858.570000", "153900.570000", "153902.570000", "153904.570000", "153906.570000", "153908.570000", "153910.570000", "153912.570000", "153914.570000", "153916.570000", "153918.570000", "153920.570000", "153922.570000", "153924.570000", "153926.570000", "153928.570000", "153930.570000", "153932.570000", "153934.570000", "153936.570000", "153938.570000", "153940.570000", "153942.570000", "153944.570000", "153946.570000", "153948.570000", "153950.570000", "153952.570000", "153954.570000", "153956.570000", "153958.570000", "154000.570000", "154002.570000", "154004.570000", "154006.570000", "154008.570000", "154010.570000", "154012.570000", "154014.570000", "154016.570000", "154018.570000", "154020.570000", "154022.570000", "154024.570000", "154026.570000", "154028.570000", "154030.570000", "154032.570000", "154034.570000", "154036.570000", "154038.570000", "154040.570000", "154042.570000", "154044.570000", "154046.570000", "154048.570000", "154050.570000", "154052.570000", "154054.570000", "154056.570000", "154058.570000", "154100.570000", "154102.570000", "154104.570000", "154106.570000", "154108.570000", "154110.570000", "154112.570000", "154114.570000", "154116.570000", "154118.570000", "154120.570000", "154122.570000", "154124.570000", "154126.570000", "154128.570000", "154130.570000", "154132.570000", "154134.570000", "154136.570000", "154138.570000", "154140.570000", "154142.570000", "154144.570000", "154146.570000", "154148.570000", "154150.570000", "154152.570000", "154154.570000", "154156.570000", "154158.570000", "154200.570000", "154202.570000", "154204.570000", "154206.570000", "154208.570000", "154210.570000", "154212.570000", "154214.570000", "154216.570000", "154218.570000", "154220.570000", "154222.570000", "154224.570000", "154226.570000", "154228.570000", "154230.570000", "154232.570000", "154234.570000", "154236.570000", "154238.570000", "154240.570000", "154242.570000", "154244.570000", "154246.570000", "154248.570000", "154250.570000", "154252.570000", "154254.570000", "154256.570000", "154258.570000", "154300.570000", "154302.570000", "154304.570000", "154306.570000", "154308.570000", "154310.570000", "154312.570000", "154314.570000", "154316.570000", "154318.570000", "154320.570000", "154322.570000", "154324.570000", "154326.570000", "154328.570000", "154330.570000", "154332.570000", "154334.570000", "154336.570000", "154338.570000", "154340.570000", "154342.570000", "154344.570000", "154346.570000", "154348.570000", "154350.570000", "154352.570000", "154354.570000", "154356.570000", "154358.570000", "154400.570000", "154402.570000", "154404.570000", "154406.570000", "154408.570000", "154410.570000", "154412.570000", "154414.570000", "154416.570000", "154418.570000", "154420.570000", "154422.570000", "154424.570000", "154426.570000", "154428.570000", "154430.570000", "154432.570000", "154434.570000", "154436.570000", "154438.570000", "154440.570000", "154442.570000", "154444.570000", "154446.570000", "154448.570000", "154450.570000", "154452.570000", "154454.570000", "154456.570000", "154458.570000", "154500.570000", "154502.570000", "154504.570000", "154506.570000", "154508.570000", "154510.570000", "154512.570000", "154514.570000", "154516.570000", "154518.570000", "154520.570000", "154522.570000", "154524.570000", "154526.570000", "154528.570000", "154530.570000", "154532.570000", "154534.570000", "154536.570000", "154538.570000", "154540.570000", "154542.570000", "154544.570000", "154546.570000", "154548.570000", "154550.570000", "154552.570000", "154554.570000", "154556.570000", "154558.570000", "154600.570000", "154602.570000", "154604.570000", "154606.570000", "154608.570000", "154610.570000", "154612.570000", "154614.570000", "154616.570000", "154618.570000", "154620.570000", "154622.570000", "154624.570000", "154626.570000", "154628.570000", "154630.570000", "154632.570000", "154634.570000", "154636.570000", "154638.570000", "154640.570000", "154642.570000", "154644.570000", "154646.570000", "154648.570000", "154650.570000", "154652.570000", "154654.570000", "154656.570000", "154658.570000", "154700.570000", "154702.570000", "154704.570000", "154706.570000", "154708.570000", "154710.570000", "154712.570000", "154714.570000", "154716.570000", "154718.570000", "154720.570000", "154722.570000", "154724.570000", "154726.570000", "154728.570000", "154730.570000", "154732.570000", "154734.570000", "154736.570000", "154738.570000", "154740.570000", "154742.570000", "154744.570000", "154746.570000", "154748.570000", "154750.570000", "154752.570000", "154754.570000", "154756.570000", "154758.570000", "154800.570000", "154802.570000", "154804.570000", "154806.570000", "154808.570000", "154810.570000", "154812.570000", "154814.570000", "154816.570000", "154818.570000", "154820.570000"],
      "ContentTime": ["153336.612000", "153336.615000", "153336.617000", "153336.620000", "153336.622000", "153336.625000", "153336.627000", "153336.630000", "153336.632000", "153336.635000", "153336.637000", "153336.640000", "153336.643000", "153336.645000", "153336.648000", "153336.650000", "153336.653000", "153336.655000", "153336.658000", "153336.660000", "153336.663000", "153336.672000", "153336.674000", "153336.677000", "153356.577000", "153356.579000", "153356.582000", "153356.585000", "153356.587000", "153356.590000", "153356.592000", "153356.595000", "153356.597000", "153356.600000", "153436.576000", "153436.579000", "153436.582000", "153436.584000", "153436.587000", "153436.589000", "153436.600000", "153436.602000", "153436.605000", "153436.607000", "153436.610000", "153436.612000", "153436.615000", "153436.618000", "153436.620000", "153436.623000", "153436.625000", "153436.628000", "153436.630000", "153436.633000", "153516.577000", "153516.580000", "153516.583000", "153516.585000", "153516.588000", "153516.590000", "153516.593000", "153516.595000", "153516.598000", "153516.600000", "153516.603000", "153516.605000", "153516.608000", "153516.611000", "153516.613000", "153516.616000", "153516.618000", "153516.621000", "153516.623000", "153516.626000", "153556.577000", "153556.580000", "153556.583000", "153556.585000", "153556.588000", "153556.591000", "153556.593000", "153556.596000", "153556.598000", "153556.601000", "153556.603000", "153556.606000", "153556.608000", "153556.611000", "153556.613000", "153556.616000", "153556.618000", "153556.621000", "153556.623000", "153556.626000", "153636.577000", "153636.579000", "153636.582000", "153636.585000", "153636.587000", "153636.590000", "153636.592000", "153636.595000", "153636.597000", "153636.600000", "153636.602000", "153636.605000", "153636.607000", "153636.610000", "153636.612000", "153636.615000", "153636.618000", "153636.620000", "153636.623000", "153636.625000", "153716.577000", "153716.580000", "153716.583000", "153716.585000", "153716.588000", "153716.590000", "153716.593000", "153716.595000", "153716.598000", "153716.601000", "153716.603000", "153716.606000", "153716.608000", "153716.611000", "153716.613000", "153716.619000", "153716.622000", "153716.624000", "153716.627000", "153716.629000", "153756.577000", "153756.580000", "153756.583000", "153756.585000", "153756.588000", "153756.590000", "153756.593000", "153756.595000", "153756.598000", "153756.600000", "153756.603000", "153756.605000", "153756.608000", "153756.611000", "153756.613000", "153756.616000", "153756.618000", "153756.621000", "153756.623000", "153756.626000", "153836.576000", "153836.579000", "153836.582000", "153836.584000", "153836.587000", "153836.589000", "153836.592000", "153836.594000", "153836.597000", "153836.599000", "153836.602000", "153836.604000", "153836.607000", "153836.609000", "153836.612000", "153836.614000", "153836.617000", "153836.619000", "153836.622000", "153836.624000", "153916.577000", "153916.580000", "153916.582000", "153916.585000", "153916.587000", "153916.590000", "153916.592000", "153916.595000", "153916.597000", "153916.600000", "153916.603000", "153916.605000", "153916.608000", "153916.610000", "153916.613000", "153916.615000", "153916.618000", "153916.620000", "153916.635000", "153916.637000", "153956.578000", "153956.580000", "153956.583000", "153956.585000", "153956.588000", "153956.591000", "153956.593000", "153956.596000", "153956.598000", "153956.601000", "153956.604000", "153956.606000", "153956.609000", "153956.611000", "153956.614000", "153956.616000", "153956.619000", "153956.622000", "153956.624000", "153956.627000", "154036.577000", "154036.580000", "154036.583000", "154036.585000", "154036.588000", "154036.591000", "154036.593000", "154036.596000", "154036.598000", "154036.601000", "154036.603000", "154036.606000", "154036.608000", "154036.611000", "154036.613000", "154036.616000", "154036.618000", "154036.621000", "154036.623000", "154036.626000", "154116.576000", "154116.579000", "154116.582000", "154116.584000", "154116.587000", "154116.590000", "154116.592000", "154116.595000", "154116.597000", "154116.600000", "154116.602000", "154116.605000", "154116.607000", "154116.610000", "154116.612000", "154116.615000", "154116.617000", "154116.620000", "154116.623000", "154116.625000", "154156.578000", "154156.580000", "154156.583000", "154156.586000", "154156.588000", "154156.591000", "154156.593000", "154156.596000", "154156.599000", "154156.601000", "154156.604000", "154156.606000", "154156.609000", "154156.611000", "154156.614000", "154156.616000", "154156.619000", "154156.621000", "154156.624000", "154156.626000", "154236.578000", "154236.580000", "154236.583000", "154236.586000", "154236.588000", "154236.591000", "154236.593000", "154236.596000", "154236.598000", "154236.601000", "154236.603000", "154236.606000", "154236.608000", "154236.611000", "154236.614000", "154236.616000", "154236.619000", "154236.621000", "154236.624000", "154236.626000", "154316.577000", "154316.579000", "154316.582000", "154316.584000", "154316.587000", "154316.590000", "154316.592000", "154316.595000", "154316.597000", "154316.600000", "154316.602000", "154316.605000", "154316.607000", "154316.610000", "154316.612000", "154316.615000", "154316.617000", "154316.620000", "154316.622000", "154316.625000", "154356.577000", "154356.579000", "154356.582000", "154356.585000", "154356.587000", "154356.590000", "154356.592000", "154356.595000", "154356.597000", "154356.600000", "154356.602000", "154356.605000", "154356.607000", "154356.610000", "154356.613000", "154356.615000", "154356.618000", "154356.620000", "154356.623000", "154356.625000", "154436.577000", "154436.580000", "154436.583000", "154436.585000", "154436.588000", "154436.591000", "154436.593000", "154436.596000", "154436.598000", "154436.601000", "154436.603000", "154436.606000", "154436.608000", "154436.611000", "154436.613000", "154436.616000", "154436.618000", "154436.621000", "154436.624000", "154436.626000", "154516.578000", "154516.580000", "154516.583000", "154516.586000", "154516.588000", "154516.591000", "154516.593000", "154516.596000", "154516.598000", "154516.601000", "154516.604000", "154516.606000", "154516.609000", "154516.611000", "154516.614000", "154516.616000", "154516.619000", "154516.621000", "154516.624000", "154516.626000", "154556.576000", "154556.579000", "154556.582000", "154556.584000", "154556.587000", "154556.589000", "154556.592000", "154556.594000", "154556.597000", "154556.600000", "154556.602000", "154556.620000", "154556.622000", "154556.625000", "154556.627000", "154556.630000", "154556.633000", "154556.635000", "154556.638000", "154556.640000", "154636.577000", "154636.580000", "154636.583000", "154636.585000", "154636.588000", "154636.591000", "154636.593000", "154636.596000", "154636.598000", "154636.601000", "154636.604000", "154636.606000", "154636.609000", "154636.611000", "154636.614000", "154636.616000", "154636.619000", "154636.621000", "154636.624000", "154636.626000", "154716.578000", "154716.580000", "154716.583000", "154716.585000", "154716.588000", "154716.591000", "154716.593000", "154716.596000", "154716.598000", "154716.601000", "154716.603000", "154716.606000", "154716.609000", "154716.611000", "154716.614000", "154716.616000", "154716.619000", "154716.621000", "154716.624000", "154716.626000", "154756.577000", "154756.579000", "154756.582000", "154756.585000", "154756.587000", "154756.590000", "154756.592000", "154756.595000", "154756.597000", "154756.600000", "154756.603000", "154756.605000", "154756.608000", "154756.610000", "154756.613000", "154756.615000", "154756.618000", "154756.620000", "154756.623000", "154756.625000", "154824.286000", "154824.289000", "154824.292000", "154824.294000", "154824.297000", "154824.299000", "154824.302000", "154824.305000", "154824.309000", "154824.316000", "154824.321000", "154824.324000", "154824.327000", "154824.330000"],
