{
  "AcquisitionMatrixPE": 96,
  "AcquisitionNumber": 1,
  "AcquisitionTime": "12:49:0.245000",
  "BandwidthPerPixelPhaseEncode": 20.425,
  "BaseResolution": 96,
  "BodyPartExamined": "BRAIN",
  "CoilCombinationMethod": "Sum of Squares",
  "ConsistencyInfo": "N4_VE11C_LATEST_20160120",
  "ConversionSoftware": "dcm2niix",
  "ConversionSoftwareVersion": "v1.0.20211006",
  "DerivedVendorReportedEchoSpacing": 0.000509996,
  "DeviceSerialNumber": "166054",
  "DwellTime": 2.3e-06,
  "EchoTime": 0.03,
  "EchoTrainLength": 96,
  "EffectiveEchoSpacing": 0.000509996,
  "FlipAngle": 75,
  "HeudiconvVersion": "0.11.3+d20220512",
  "ImageComments": "Unaliased MB2/PE2",
  "ImageOrientationPatientDICOM": [0.99886, -0.00105657, 0.0477157, 0.015517, 0.952631, -0.303732],
  "ImageOrientationText": "Tra>Cor(-17.7)>Sag(2.6)",
  "ImageType": [
    "ORIGINAL",
    "PRIMARY",
    "M",
    "MB",
    "ND",
    "MOSAIC"
],
  "ImagingFrequency": 123.26,
  "InPlanePhaseEncodingDirectionDICOM": "COL",
  "InstitutionAddress": "Street StreetNo,City,District,IL,ZIP",
  "InstitutionName": "Weizmann Institute",
  "InstitutionalDepartmentName": "Department",
  "MRAcquisitionType": "2D",
  "MagneticFieldStrength": 3,
  "Manufacturer": "Siemens",
  "ManufacturersModelName": "Prisma",
  "MatrixCoilMode": "SENSE",
  "Modality": "MR",
  "MultibandAccelerationFactor": 2,
  "PartialFourier": 1,
  "PatientPosition": "HFS",
  "PercentPhaseFOV": 100,
  "PercentSampling": 100,
  "PhaseEncodingDirection": "j-",
  "PhaseEncodingSteps": 96,
  "PhaseResolution": 1,
  "PixelBandwidth": 2265,
  "ProcedureStepDescription": "Weizmann^Sobel",
  "ProtocolName": "EPI_PSAP_iso2.5",
  "PulseSequenceDetails": "%CustomerSeq%\\cmrr_mbep2d_bold",
  "ReceiveCoilActiveElements": "HEA;HEP",
  "ReceiveCoilName": "Head_32",
  "ReconMatrixPE": 96,
  "RepetitionTime": 2,
  "SAR": 0.107567,
  "ScanOptions": "FS",
  "ScanningSequence": "EP",
  "SequenceName": "epfid2d1_96",
  "SequenceVariant": "SK\\SS",
  "SeriesDescription": "EPI_PSAP_iso2.5",
  "SeriesNumber": 6,
  "ShimSetting": [5918, -4059, -1843, 558, 102, -35, -44, -10],
  "SliceThickness": 2.5,
  "SliceTiming": [0, 0.92, 1.84, 0.78, 1.6975, 0.6375, 1.5575, 0.495, 1.415, 0.355, 1.275, 0.2125, 1.1325, 0.0725, 0.99, 1.91, 0.85, 1.77, 0.7075, 1.6275, 0.5675, 1.485, 0.425, 1.345, 0.285, 1.2025, 0.1425, 1.0625, 0, 0.92, 1.84, 0.78, 1.6975, 0.6375, 1.5575, 0.495, 1.415, 0.355, 1.275, 0.2125, 1.1325, 0.0725, 0.99, 1.91, 0.85, 1.77, 0.7075, 1.6275, 0.5675, 1.485, 0.425, 1.345, 0.285, 1.2025, 0.1425, 1.0625],
  "SoftwareVersions": "syngo MR E11",
  "SpacingBetweenSlices": 2.5,
  "StationName": "AWP166054",
  "TaskName": "PSAP",
  "TotalReadoutTime": 0.0484496,
  "TxRefAmp": 228.1,
  "VendorReportedEchoSpacing": 0.00051,
  "WipMemBlock": "dc773655-28fe-471d-886c-79c65f144400||Sequence: R016 ve11c/master r/e634e98; Dec 19 2017 11:00:25 by eja",
  "dcmmeta_affine": [
    [-2.4971508979797363, 0.03879253938794136, 0.11283645033836365, 115.35120391845703],
    [0.0026414222083985806, 2.381577491760254, -0.7603164911270142, -96.97705841064453],
    [0.1192893460392952, 0.7593307495117188, 2.3789045810699463, -94.23873901367188],
    [0.0, 0.0, 0.0, 1.0]
],
  "dcmmeta_reorient_transform": [
    [0.0, -1.0, 0.0, 95.0],
    [1.0, 0.0, 0.0, 0.0],
    [0.0, 0.0, 1.0, 0.0],
    [0.0, 0.0, 0.0, 1.0]
],
  "dcmmeta_shape": [96, 96, 56, 491],
  "dcmmeta_slice_dim": 2,
  "dcmmeta_version": 0.6,
  "global": {
    "const": {
      "AcquisitionMatrix": [96, 0, 0, 96],
      "AngioFlag": "N",
      "BitsAllocated": 16,
      "BitsStored": 16,
      "BodyPartExamined": "BRAIN",
      "Columns": 768,
      "EchoNumbers": 1,
      "EchoTime": 30.0,
      "EchoTrainLength": 96,
      "FlipAngle": 75.0,
      "HighBit": 15,
      "ImageOrientationPatient": [0.99886039660011, -0.0010565688771, 0.04771573918614, 0.01551701528345, 0.95263104377857, -0.3037323108694],
      "ImagePositionPatient": [-971.11351864957, -928.59537060785, 192.95160614255],
      "ImageType": [
        "ORIGINAL",
        "PRIMARY",
        "M",
        "MB",
        "ND",
        "MOSAIC"
],
      "ImagedNucleus": "1H",
      "ImagingFrequency": 123.260311,
      "InPlanePhaseEncodingDirection": "COL",
      "MRAcquisitionType": "2D",
      "MagneticFieldStrength": 3.0,
      "Manufacturer": "SIEMENS",
      "ManufacturerModelName": "Prisma",
      "Modality": "MR",
      "NumberOfAverages": 1.0,
      "NumberOfPhaseEncodingSteps": 96,
      "PercentPhaseFieldOfView": 100.0,
      "PercentSampling": 100.0,
      "PerformedProcedureStepStartTime": "115110.710000",
      "PhotometricInterpretation": "MONOCHROME2",
      "PixelBandwidth": 2265.0,
      "PixelRepresentation": 0,
      "PixelSpacing": [2.5, 2.5],
      "ProtocolName": "EPI_PSAP_iso2.5",
      "RepetitionTime": 2000.0,
      "Rows": 768,
      "SAR": 0.10756687323228,
      "SamplesPerPixel": 1,
      "ScanOptions": "FS",
      "ScanningSequence": "EP",
      "SequenceName": "epfid2d1_96",
      "SequenceVariant": [
        "SK",
        "SS"
],
      "SeriesDescription": "EPI_PSAP_iso2.5",
      "SeriesNumber": 6,
      "SeriesTime": "124948.562000",
      "SliceLocation": -54.974354408586,
      "SliceThickness": 2.5,
      "SmallestImagePixelValue": 0,
      "SoftwareVersions": "syngo MR E11",
      "SpacingBetweenSlices": 2.5000000398646,
      "SpecificCharacterSet": "ISO_IR 100",
      "StudyID": "1",
      "StudyTime": "115110.568000",
      "TransmitCoilName": "Body",
      "VariableFlipAngleFlag": "N",
      "WindowCenterWidthExplanation": "Algo1",
      "dBdt": 0.0},
    "slices": {}
  },
  "time": {
    "samples": {
      "AcquisitionNumber": [1, 2, 3, 4, 5, 6, 7, 8, 9, 10, 11, 12, 13, 14, 15, 16, 17, 18, 19, 20, 21, 22, 23, 24, 25, 26, 27, 28, 29, 30, 31, 32, 33, 34, 35, 36, 37, 38, 39, 40, 41, 42, 43, 44, 45, 46, 47, 48, 49, 50, 51, 52, 53, 54, 55, 56, 57, 58, 59, 60, 61, 62, 63, 64, 65, 66, 67, 68, 69, 70, 71, 72, 73, 74, 75, 76, 77, 78, 79, 80, 81, 82, 83, 84, 85, 86, 87, 88, 89, 90, 91, 92, 93, 94, 95, 96, 97, 98, 99, 100, 101, 102, 103, 104, 105, 106, 107, 108, 109, 110, 111, 112, 113, 114, 115, 116, 117, 118, 119, 120, 121, 122, 123, 124, 125, 126, 127, 128, 129, 130, 131, 132, 133, 134, 135, 136, 137, 138, 139, 140, 141, 142, 143, 144, 145, 146, 147, 148, 149, 150, 151, 152, 153, 154, 155, 156, 157, 158, 159, 160, 161, 162, 163, 164, 165, 166, 167, 168, 169, 170, 171, 172, 173, 174, 175, 176, 177, 178, 179, 180, 181, 182, 183, 184, 185, 186, 187, 188, 189, 190, 191, 192, 193, 194, 195, 196, 197, 198, 199, 200, 201, 202, 203, 204, 205, 206, 207, 208, 209, 210, 211, 212, 213, 214, 215, 216, 217, 218, 219, 220, 221, 222, 223, 224, 225, 226, 227, 228, 229, 230, 231, 232, 233, 234, 235, 236, 237, 238, 239, 240, 241, 242, 243, 244, 245, 246, 247, 248, 249, 250, 251, 252, 253, 254, 255, 256, 257, 258, 259, 260, 261, 262, 263, 264, 265, 266, 267, 268, 269, 270, 271, 272, 273, 274, 275, 276, 277, 278, 279, 280, 281, 282, 283, 284, 285, 286, 287, 288, 289, 290, 291, 292, 293, 294, 295, 296, 297, 298, 299, 300, 301, 302, 303, 304, 305, 306, 307, 308, 309, 310, 311, 312, 313, 314, 315, 316, 317, 318, 319, 320, 321, 322, 323, 324, 325, 326, 327, 328, 329, 330, 331, 332, 333, 334, 335, 336, 337, 338, 339, 340, 341, 342, 343, 344, 345, 346, 347, 348, 349, 350, 351, 352, 353, 354, 355, 356, 357, 358, 359, 360, 361, 362, 363, 364, 365, 366, 367, 368, 369, 370, 371, 372, 373, 374, 375, 376, 377, 378, 379, 380, 381, 382, 383, 384, 385, 386, 387, 388, 389, 390, 391, 392, 393, 394, 395, 396, 397, 398, 399, 400, 401, 402, 403, 404, 405, 406, 407, 408, 409, 410, 411, 412, 413, 414, 415, 416, 417, 418, 419, 420, 421, 422, 423, 424, 425, 426, 427, 428, 429, 430, 431, 432, 433, 434, 435, 436, 437, 438, 439, 440, 441, 442, 443, 444, 445, 446, 447, 448, 449, 450, 451, 452, 453, 454, 455, 456, 457, 458, 459, 460, 461, 462, 463, 464, 465, 466, 467, 468, 469, 470, 471, 472, 473, 474, 475, 476, 477, 478, 479, 480, 481, 482, 483, 484, 485, 486, 487, 488, 489, 490, 491],
      "AcquisitionTime": ["124900.245000", "124902.245000", "124904.245000", "124906.245000", "124908.245000", "124910.245000", "124912.245000", "124914.245000", "124916.245000", "124918.245000", "124920.245000", "124922.245000", "124924.245000", "124926.245000", "124928.245000", "124930.245000", "124932.245000", "124934.245000", "124936.245000", "124938.245000", "124940.245000", "124942.245000", "124944.245000", "124946.245000", "124948.245000", "124950.245000", "124952.245000", "124954.245000", "124956.245000", "124958.245000", "125000.245000", "125002.245000", "125004.245000", "125006.245000", "125008.245000", "125010.245000", "125012.245000", "125014.245000", "125016.245000", "125018.245000", "125020.245000", "125022.245000", "125024.245000", "125026.245000", "125028.245000", "125030.245000", "125032.245000", "125034.245000", "125036.245000", "125038.245000", "125040.245000", "125042.245000", "125044.245000", "125046.245000", "125048.245000", "125050.245000", "125052.245000", "125054.245000", "125056.245000", "125058.245000", "125100.245000", "125102.245000", "125104.245000", "125106.245000", "125108.245000", "125110.245000", "125112.245000", "125114.245000", "125116.245000", "125118.245000", "125120.245000", "125122.245000", "125124.245000", "125126.245000", "125128.245000", "125130.245000", "125132.245000", "125134.245000", "125136.245000", "125138.245000", "125140.245000", "125142.245000", "125144.245000", "125146.245000", "125148.245000", "125150.245000", "125152.245000", "125154.245000", "125156.245000", "125158.245000", "125200.245000", "125202.245000", "125204.245000", "125206.245000", "125208.245000", "125210.245000", "125212.245000", "125214.245000", "125216.245000", "125218.245000", "125220.245000", "125222.245000", "125224.245000", "125226.245000", "125228.245000", "125230.245000", "125232.245000", "125234.245000", "125236.245000", "125238.245000", "125240.245000", "125242.245000", "125244.245000", "125246.245000", "125248.245000", "125250.245000", "125252.245000", "125254.245000", "125256.245000", "125258.245000", "125300.245000", "125302.245000", "125304.245000", "125306.245000", "125308.245000", "125310.245000", "125312.245000", "125314.245000", "125316.245000", "125318.245000", "125320.245000", "125322.245000", "125324.245000", "125326.245000", "125328.245000", "125330.245000", "125332.245000", "125334.245000", "125336.245000", "125338.245000", "125340.245000", "125342.245000", "125344.245000", "125346.245000", "125348.245000", "125350.245000", "125352.245000", "125354.245000", "125356.245000", "125358.245000", "125400.245000", "125402.245000", "125404.245000", "125406.245000", "125408.245000", "125410.245000", "125412.245000", "125414.245000", "125416.245000", "125418.245000", "125420.245000", "125422.245000", "125424.245000", "125426.245000", "125428.245000", "125430.245000", "125432.245000", "125434.245000", "125436.245000", "125438.245000", "125440.245000", "125442.245000", "125444.245000", "125446.245000", "125448.245000", "125450.245000", "125452.245000", "125454.245000", "125456.245000", "125458.245000", "125500.245000", "125502.245000", "125504.245000", "125506.245000", "125508.245000", "125510.245000", "125512.245000", "125514.245000", "125516.245000", "125518.245000", "125520.245000", "125522.245000", "125524.245000", "125526.245000", "125528.245000", "125530.245000", "125532.245000", "125534.245000", "125536.245000", "125538.245000", "125540.245000", "125542.245000", "125544.245000", "125546.245000", "125548.245000", "125550.245000", "125552.245000", "125554.245000", "125556.245000", "125558.245000", "125600.245000", "125602.245000", "125604.245000", "125606.245000", "125608.245000", "125610.245000", "125612.245000", "125614.245000", "125616.245000", "125618.245000", "125620.245000", "125622.245000", "125624.245000", "125626.245000", "125628.245000", "125630.245000", "125632.245000", "125634.245000", "125636.245000", "125638.245000", "125640.245000", "125642.245000", "125644.245000", "125646.245000", "125648.245000", "125650.245000", "125652.245000", "125654.245000", "125656.245000", "125658.245000", "125700.245000", "125702.245000", "125704.245000", "125706.245000", "125708.245000", "125710.245000", "125712.245000", "125714.245000", "125716.245000", "125718.245000", "125720.245000", "125722.245000", "125724.245000", "125726.245000", "125728.245000", "125730.245000", "125732.245000", "125734.245000", "125736.245000", "125738.245000", "125740.245000", "125742.245000", "125744.245000", "125746.245000", "125748.245000", "125750.245000", "125752.245000", "125754.245000", "125756.245000", "125758.245000", "125800.245000", "125802.245000", "125804.245000", "125806.245000", "125808.245000", "125810.245000", "125812.245000", "125814.245000", "125816.245000", "125818.245000", "125820.245000", "125822.245000", "125824.245000", "125826.245000", "125828.245000", "125830.245000", "125832.245000", "125834.245000", "125836.245000", "125838.245000", "125840.245000", "125842.245000", "125844.245000", "125846.245000", "125848.245000", "125850.245000", "125852.245000", "125854.245000", "125856.245000", "125858.245000", "125900.245000", "125902.245000", "125904.245000", "125906.245000", "125908.245000", "125910.245000", "125912.245000", "125914.245000", "125916.245000", "125918.245000", "125920.245000", "125922.245000", "125924.245000", "125926.245000", "125928.245000", "125930.245000", "125932.245000", "125934.245000", "125936.245000", "125938.245000", "125940.245000", "125942.245000", "125944.245000", "125946.245000", "125948.245000", "125950.245000", "125952.245000", "125954.245000", "125956.245000", "125958.245000", "130000.245000", "130002.245000", "130004.245000", "130006.245000", "130008.245000", "130010.245000", "130012.245000", "130014.245000", "130016.245000", "130018.245000", "130020.245000", "130022.245000", "130024.245000", "130026.245000", "130028.245000", "130030.245000", "130032.245000", "130034.245000", "130036.245000", "130038.245000", "130040.245000", "130042.245000", "130044.245000", "130046.245000", "130048.245000", "130050.245000", "130052.245000", "130054.245000", "130056.245000", "130058.245000", "130100.245000", "130102.245000", "130104.245000", "130106.245000", "130108.245000", "130110.245000", "130112.245000", "130114.245000", "130116.245000", "130118.245000", "130120.245000", "130122.245000", "130124.245000", "130126.245000", "130128.245000", "130130.245000", "130132.245000", "130134.245000", "130136.245000", "130138.245000", "130140.245000", "130142.245000", "130144.245000", "130146.245000", "130148.245000", "130150.245000", "130152.245000", "130154.245000", "130156.245000", "130158.245000", "130200.245000", "130202.245000", "130204.245000", "130206.245000", "130208.245000", "130210.245000", "130212.245000", "130214.245000", "130216.245000", "130218.245000", "130220.245000", "130222.245000", "130224.245000", "130226.245000", "130228.245000", "130230.245000", "130232.245000", "130234.245000", "130236.245000", "130238.245000", "130240.245000", "130242.245000", "130244.245000", "130246.245000", "130248.245000", "130250.245000", "130252.245000", "130254.245000", "130256.245000", "130258.245000", "130300.245000", "130302.245000", "130304.245000", "130306.245000", "130308.245000", "130310.245000", "130312.245000", "130314.245000", "130316.245000", "130318.245000", "130320.245000", "130322.245000", "130324.245000", "130326.245000", "130328.245000", "130330.245000", "130332.245000", "130334.245000", "130336.245000", "130338.245000", "130340.245000", "130342.245000", "130344.245000", "130346.245000", "130348.245000", "130350.245000", "130352.245000", "130354.245000", "130356.245000", "130358.245000", "130400.245000", "130402.245000", "130404.245000", "130406.245000", "130408.245000", "130410.245000", "130412.245000", "130414.245000", "130416.245000", "130418.245000", "130420.245000", "130422.245000", "130424.245000", "130426.245000", "130428.245000", "130430.245000", "130432.245000", "130434.245000", "130436.245000", "130438.245000", "130440.245000", "130442.245000", "130444.245000", "130446.245000", "130448.245000", "130450.245000", "130452.245000", "130454.245000", "130456.245000", "130458.245000", "130500.245000", "130502.245000", "130504.245000", "130506.245000", "130508.245000", "130510.245000", "130512.245000", "130514.245000", "130516.245000", "130518.245000", "130520.245000"],
      "ContentTime": ["124948.564000", "124948.567000", "124948.570000", "124948.573000", "124948.575000", "124948.578000", "124948.580000", "124948.583000", "124948.585000", "124948.590000", "124948.592000", "124948.601000", "124948.604000", "124948.607000", "124948.613000", "124948.615000", "124948.618000", "124948.621000", "124948.623000", "124948.626000", "124948.628000", "124948.631000", "124948.633000", "125028.522000", "125028.535000", "125028.538000", "125028.541000", "125028.544000", "125028.546000", "125028.549000", "125028.552000", "125028.558000", "125028.561000", "125028.563000", "125028.566000", "125028.568000", "125028.571000", "125028.573000", "125028.576000", "125028.579000", "125028.581000", "125028.584000", "125028.586000", "125108.521000", "125108.524000", "125108.527000", "125108.529000", "125108.532000", "125108.534000", "125108.537000", "125108.539000", "125108.542000", "125108.545000", "125108.547000", "125108.550000", "125108.552000", "125108.555000", "125108.557000", "125108.560000", "125108.562000", "125108.565000", "125108.576000", "125108.578000", "125128.521000", "125128.524000", "125128.527000", "125128.529000", "125128.532000", "125128.535000", "125128.537000", "125128.540000", "125128.542000", "125128.545000", "125208.522000", "125208.525000", "125208.528000", "125208.536000", "125208.538000", "125208.541000", "125208.543000", "125208.546000", "125208.560000", "125208.563000", "125208.565000", "125208.568000", "125208.571000", "125208.574000", "125208.576000", "125208.579000", "125208.581000", "125208.584000", "125208.586000", "125208.589000", "125248.521000", "125248.524000", "125248.527000", "125248.530000", "125248.532000", "125248.535000", "125248.537000", "125248.540000", "125248.542000", "125248.545000", "125248.547000", "125248.550000", "125248.552000", "125248.555000", "125248.558000", "125248.560000", "125248.563000", "125248.565000", "125248.568000", "125248.570000", "125328.521000", "125328.524000", "125328.527000", "125328.530000", "125328.532000", "125328.535000", "125328.537000", "125328.540000", "125328.542000", "125328.545000", "125328.548000", "125328.550000", "125328.553000", "125328.555000", "125328.558000", "125328.560000", "125328.563000", "125328.565000", "125328.568000", "125328.570000", "125408.522000", "125408.525000", "125408.528000", "125408.531000", "125408.533000", "125408.536000", "125408.538000", "125408.541000", "125408.543000", "125408.546000", "125408.549000", "125408.551000", "125408.554000", "125408.556000", "125408.559000", "125408.562000", "125408.564000", "125408.567000", "125408.570000", "125408.572000", "125448.521000", "125448.524000", "125448.527000", "125448.529000", "125448.532000", "125448.534000", "125448.537000", "125448.540000", "125448.542000", "125448.545000", "125448.547000", "125448.550000", "125448.553000", "125448.555000", "125448.558000", "125448.560000", "125448.563000", "125448.565000", "125448.568000", "125448.571000", "125528.522000", "125528.524000", "125528.527000", "125528.530000", "125528.532000", "125528.535000", "125528.538000", "125528.540000", "125528.543000", "125528.545000", "125528.548000", "125528.550000", "125528.553000", "125528.555000", "125528.558000", "125528.561000", "125528.563000", "125528.566000", "125528.568000", "125528.571000", "125608.521000", "125608.524000", "125608.527000", "125608.530000", "125608.532000", "125608.535000", "125608.537000", "125608.540000", "125608.542000", "125608.545000", "125608.548000", "125608.550000", "125608.553000", "125608.555000", "125608.558000", "125608.561000", "125608.563000", "125608.566000", "125608.568000", "125608.571000", "125648.523000", "125648.525000", "125648.528000", "125648.531000", "125648.533000", "125648.536000", "125648.539000", "125648.541000", "125648.544000", "125648.546000", "125648.549000", "125648.551000", "125648.554000", "125648.556000", "125648.559000", "125648.561000", "125648.564000", "125648.566000", "125648.569000", "125648.572000", "125728.522000", "125728.524000", "125728.527000", "125728.530000", "125728.532000", "125728.535000", "125728.537000", "125728.540000", "125728.542000", "125728.545000", "125728.548000", "125728.550000", "125728.553000", "125728.555000", "125728.558000", "125728.560000", "125728.563000", "125728.565000", "125728.568000", "125728.571000", "125808.521000", "125808.524000", "125808.527000", "125808.529000", "125808.532000", "125808.534000", "125808.537000", "125808.540000", "125808.542000", "125808.545000", "125808.547000", "125808.550000", "125808.553000", "125808.555000", "125808.558000", "125808.560000", "125808.563000", "125808.565000", "125808.568000", "125808.570000", "125848.523000", "125848.525000", "125848.528000", "125848.531000", "125848.533000", "125848.536000", "125848.538000", "125848.541000", "125848.543000", "125848.546000", "125848.549000", "125848.551000", "125848.554000", "125848.556000", "125848.559000", "125848.578000", "125848.581000", "125848.583000", "125848.586000", "125848.589000", "125928.521000", "125928.524000", "125928.527000", "125928.530000", "125928.532000", "125928.535000", "125928.537000", "125928.540000", "125928.542000", "125928.545000", "125928.548000", "125928.550000", "125928.553000", "125928.555000", "125928.558000", "125928.560000", "125928.563000", "125928.566000", "125928.568000", "125928.571000", "130008.521000", "130008.524000", "130008.527000", "130008.530000", "130008.532000", "130008.535000", "130008.537000", "130008.540000", "130008.542000", "130008.545000", "130008.547000", "130008.550000", "130008.552000", "130008.555000", "130008.558000", "130008.560000", "130008.563000", "130008.565000", "130008.568000", "130008.570000", "130048.522000", "130048.524000", "130048.527000", "130048.530000", "130048.532000", "130048.535000", "130048.537000", "130048.540000", "130048.543000", "130048.545000", "130048.548000", "130048.550000", "130048.553000", "130048.555000", "130048.558000", "130048.561000", "130048.563000", "130048.566000", "130048.568000", "130048.571000", "130128.523000", "130128.525000", "130128.528000", "130128.531000", "130128.533000", "130128.536000", "130128.538000", "130128.541000", "130128.543000", "130128.546000", "130128.549000", "130128.551000", "130128.554000", "130128.556000", "130128.559000", "130128.561000", "130128.564000", "130128.566000", "130128.569000", "130128.572000", "130208.521000", "130208.524000", "130208.527000", "130208.530000", "130208.532000", "130208.535000", "130208.537000", "130208.540000", "130208.542000", "130208.545000", "130208.547000", "130208.550000", "130208.552000", "130208.555000", "130208.558000", "130208.560000", "130208.563000", "130208.565000", "130208.568000", "130208.571000", "130248.522000", "130248.524000", "130248.527000", "130248.530000", "130248.532000", "130248.535000", "130248.537000", "130248.540000", "130248.542000", "130248.545000", "130248.548000", "130248.550000", "130248.553000", "130248.555000", "130248.558000", "130248.560000", "130248.563000", "130248.565000", "130248.568000", "130248.571000", "130328.523000", "130328.525000", "130328.528000", "130328.531000", "130328.533000", "130328.536000", "130328.538000", "130328.541000", "130328.543000", "130328.546000", "130328.548000", "130328.551000", "130328.553000", "130328.556000", "130328.559000", "130328.561000", "130328.564000", "130328.566000", "130328.569000", "130328.571000", "130408.521000", "130408.524000", "130408.527000", "130408.529000", "130408.532000", "130408.534000", "130408.537000", "130408.540000", "130408.542000", "130408.545000", "130408.547000", "130408.550000", "130408.552000", "130408.555000", "130408.557000", "130408.560000", "130408.562000", "130408.565000", "130408.567000", "130408.570000", "130448.522000", "130448.537000", "130448.540000", "130448.542000", "130448.545000", "130448.548000", "130448.550000", "130448.553000", "130448.555000", "130448.558000", "130448.560000", "130448.563000", "130448.566000", "130448.568000", "130448.571000", "130448.574000", "130448.576000", "130448.579000", "130448.581000", "130448.584000", "130523.019000", "130523.021000", "130523.024000", "130523.027000", "130523.029000", "130523.032000", "130523.035000", "130523.037000", "130523.040000", "130523.043000", "130523.045000", "130523.048000", "130523.050000", "130523.053000", "130523.056000", "130523.065000", "130523.068000", "130523.070000"],
