{
  "AcquisitionMatrixPE": 96,
  "AcquisitionNumber": 1,
  "AcquisitionTime": "12:45:26.037500",
  "BandwidthPerPixelPhaseEncode": 20.425,
  "BaseResolution": 96,
  "BodyPartExamined": "BRAIN",
  "CoilCombinationMethod": "Sum of Squares",
  "ConsistencyInfo": "N4_VE11C_LATEST_20160120",
  "ConversionSoftware": "dcm2niix",
  "ConversionSoftwareVersion": "v1.0.20211006",
  "DerivedVendorReportedEchoSpacing": 0.000509996,
  "DeviceSerialNumber": "166054",
  "DwellTime": 2.3e-06,
  "EchoTime": 0.03,
  "EchoTrainLength": 96,
  "EffectiveEchoSpacing": 0.000509996,
  "FlipAngle": 75,
  "HeudiconvVersion": "0.11.3+d20220512",
  "ImageComments": "Unaliased MB2/PE2",
  "ImageOrientationPatientDICOM": [0.999671, -0.00390133, 0.0253343, 0.00872406, 0.981129, -0.193157],
  "ImageOrientationText": "Tra>Cor(-11.1)>Sag(1.4)",
  "ImageType": [
    "ORIGINAL",
    "PRIMARY",
    "M",
    "MB",
    "ND",
    "MOSAIC"
],
  "ImagingFrequency": 123.26,
  "InPlanePhaseEncodingDirectionDICOM": "COL",
  "InstitutionAddress": "Street StreetNo,City,District,IL,ZIP",
  "InstitutionName": "Weizmann Institute",
  "InstitutionalDepartmentName": "Department",
  "MRAcquisitionType": "2D",
  "MagneticFieldStrength": 3,
  "Manufacturer": "Siemens",
  "ManufacturersModelName": "Prisma",
  "MatrixCoilMode": "SENSE",
  "Modality": "MR",
  "MultibandAccelerationFactor": 2,
  "PartialFourier": 1,
  "PatientPosition": "HFS",
  "PercentPhaseFOV": 100,
  "PercentSampling": 100,
  "PhaseEncodingDirection": "j-",
  "PhaseEncodingSteps": 96,
  "PhaseResolution": 1,
  "PixelBandwidth": 2265,
  "ProcedureStepDescription": "Weizmann^Sobel",
  "ProtocolName": "EPI_PSAP_iso2.5",
  "PulseSequenceDetails": "%CustomerSeq%\\cmrr_mbep2d_bold",
  "ReceiveCoilActiveElements": "HEA;HEP",
  "ReceiveCoilName": "Head_32",
  "ReconMatrixPE": 96,
  "RepetitionTime": 2,
  "SAR": 0.100162,
  "ScanOptions": "FS",
  "ScanningSequence": "EP",
  "SequenceName": "epfid2d1_96",
  "SequenceVariant": "SK\\SS",
  "SeriesDescription": "EPI_PSAP_iso2.5",
  "SeriesNumber": 6,
  "ShimSetting": [5914, -4101, -1953, 627, 115, -70, 162, 7],
  "SliceThickness": 2.5,
  "SliceTiming": [0, 0.92, 1.8375, 0.7775, 1.6975, 0.6375, 1.555, 0.495, 1.415, 0.355, 1.2725, 0.2125, 1.1325, 0.07, 0.99, 1.91, 0.85, 1.7675, 0.7075, 1.6275, 0.565, 1.485, 0.425, 1.345, 0.2825, 1.2025, 0.1425, 1.06, 0, 0.92, 1.8375, 0.7775, 1.6975, 0.6375, 1.555, 0.495, 1.415, 0.355, 1.2725, 0.2125, 1.1325, 0.07, 0.99, 1.91, 0.85, 1.7675, 0.7075, 1.6275, 0.565, 1.485, 0.425, 1.345, 0.2825, 1.2025, 0.1425, 1.06],
  "SoftwareVersions": "syngo MR E11",
  "SpacingBetweenSlices": 2.5,
  "StationName": "AWP166054",
  "TaskName": "PSAP",
  "TotalReadoutTime": 0.0484496,
  "TxRefAmp": 241.5,
  "VendorReportedEchoSpacing": 0.00051,
  "WipMemBlock": "9be11d4c-1d8a-4d66-bffd-3b436c5d2770||Sequence: R016 ve11c/master r/e634e98; Dec 19 2017 11:00:25 by eja",
  "dcmmeta_affine": [
    [-2.499178647994995, 0.02181016281247139, 0.06025651469826698, 118.1928939819336],
    [0.009753323160111904, 2.452822685241699, -0.4832865297794342, -101.2642822265625],
    [0.06333564221858978, 0.4828926622867584, 2.452101707458496, -84.77627563476562],
    [0.0, 0.0, 0.0, 1.0]
],
  "dcmmeta_reorient_transform": [
    [0.0, -1.0, 0.0, 95.0],
    [1.0, 0.0, 0.0, 0.0],
    [0.0, 0.0, 1.0, 0.0],
    [0.0, 0.0, 0.0, 1.0]
],
  "dcmmeta_shape": [96, 96, 56, 492],
  "dcmmeta_slice_dim": 2,
  "dcmmeta_version": 0.6,
  "global": {
    "const": {
      "AcquisitionMatrix": [96, 0, 0, 96],
      "AngioFlag": "N",
      "BitsAllocated": 16,
      "BitsStored": 16,
      "BodyPartExamined": "BRAIN",
      "Columns": 768,
      "EchoNumbers": 1,
      "EchoTime": 30.0,
      "EchoTrainLength": 96,
      "FlipAngle": 75.0,
      "HighBit": 15,
      "ImageOrientationPatient": [0.99967142354396, -0.0039013293204, 0.02533425702744, 0.00872406492758, 0.98112906260332, -0.1931570687453],
      "ImagePositionPatient": [-967.31706992221, -952.62516951439, 102.06968852526],
      "ImageType": [
        "ORIGINAL",
        "PRIMARY",
        "M",
        "MB",
        "ND",
        "MOSAIC"
],
      "ImagedNucleus": "1H",
      "ImagingFrequency": 123.260157,
      "InPlanePhaseEncodingDirection": "COL",
      "MRAcquisitionType": "2D",
      "MagneticFieldStrength": 3.0,
      "Manufacturer": "SIEMENS",
      "ManufacturerModelName": "Prisma",
      "Modality": "MR",
      "NumberOfAverages": 1.0,
      "NumberOfPhaseEncodingSteps": 96,
      "PercentPhaseFieldOfView": 100.0,
      "PercentSampling": 100.0,
      "PerformedProcedureStepStartTime": "114731.701000",
      "PhotometricInterpretation": "MONOCHROME2",
      "PixelBandwidth": 2265.0,
      "PixelRepresentation": 0,
      "PixelSpacing": [2.5, 2.5],
      "ProtocolName": "EPI_PSAP_iso2.5",
      "RepetitionTime": 2000.0,
      "Rows": 768,
      "SAR": 0.1001622407916,
      "SamplesPerPixel": 1,
      "ScanOptions": "FS",
      "ScanningSequence": "EP",
      "SequenceName": "epfid2d1_96",
      "SequenceVariant": [
        "SK",
        "SS"
],
      "SeriesDescription": "EPI_PSAP_iso2.5",
      "SeriesNumber": 6,
      "SeriesTime": "124626.458000",
      "SliceLocation": -60.727402538186,
      "SliceThickness": 2.5,
      "SmallestImagePixelValue": 0,
      "SoftwareVersions": "syngo MR E11",
      "SpacingBetweenSlices": 2.499999958192,
      "SpecificCharacterSet": "ISO_IR 100",
      "StudyID": "1",
      "StudyTime": "114731.608000",
      "TransmitCoilName": "Body",
      "VariableFlipAngleFlag": "N",
      "WindowCenterWidthExplanation": "Algo1",
      "dBdt": 0.0},
    "slices": {}
  },
  "time": {
    "samples": {
      "AcquisitionNumber": [1, 2, 3, 4, 5, 6, 7, 8, 9, 10, 11, 12, 13, 14, 15, 16, 17, 18, 19, 20, 21, 22, 23, 24, 25, 26, 27, 28, 29, 30, 31, 32, 33, 34, 35, 36, 37, 38, 39, 40, 41, 42, 43, 44, 45, 46, 47, 48, 49, 50, 51, 52, 53, 54, 55, 56, 57, 58, 59, 60, 61, 62, 63, 64, 65, 66, 67, 68, 69, 70, 71, 72, 73, 74, 75, 76, 77, 78, 79, 80, 81, 82, 83, 84, 85, 86, 87, 88, 89, 90, 91, 92, 93, 94, 95, 96, 97, 98, 99, 100, 101, 102, 103, 104, 105, 106, 107, 108, 109, 110, 111, 112, 113, 114, 115, 116, 117, 118, 119, 120, 121, 122, 123, 124, 125, 126, 127, 128, 129, 130, 131, 132, 133, 134, 135, 136, 137, 138, 139, 140, 141, 142, 143, 144, 145, 146, 147, 148, 149, 150, 151, 152, 153, 154, 155, 156, 157, 158, 159, 160, 161, 162, 163, 164, 165, 166, 167, 168, 169, 170, 171, 172, 173, 174, 175, 176, 177, 178, 179, 180, 181, 182, 183, 184, 185, 186, 187, 188, 189, 190, 191, 192, 193, 194, 195, 196, 197, 198, 199, 200, 201, 202, 203, 204, 205, 206, 207, 208, 209, 210, 211, 212, 213, 214, 215, 216, 217, 218, 219, 220, 221, 222, 223, 224, 225, 226, 227, 228, 229, 230, 231, 232, 233, 234, 235, 236, 237, 238, 239, 240, 241, 242, 243, 244, 245, 246, 247, 248, 249, 250, 251, 252, 253, 254, 255, 256, 257, 258, 259, 260, 261, 262, 263, 264, 265, 266, 267, 268, 269, 270, 271, 272, 273, 274, 275, 276, 277, 278, 279, 280, 281, 282, 283, 284, 285, 286, 287, 288, 289, 290, 291, 292, 293, 294, 295, 296, 297, 298, 299, 300, 301, 302, 303, 304, 305, 306, 307, 308, 309, 310, 311, 312, 313, 314, 315, 316, 317, 318, 319, 320, 321, 322, 323, 324, 325, 326, 327, 328, 329, 330, 331, 332, 333, 334, 335, 336, 337, 338, 339, 340, 341, 342, 343, 344, 345, 346, 347, 348, 349, 350, 351, 352, 353, 354, 355, 356, 357, 358, 359, 360, 361, 362, 363, 364, 365, 366, 367, 368, 369, 370, 371, 372, 373, 374, 375, 376, 377, 378, 379, 380, 381, 382, 383, 384, 385, 386, 387, 388, 389, 390, 391, 392, 393, 394, 395, 396, 397, 398, 399, 400, 401, 402, 403, 404, 405, 406, 407, 408, 409, 410, 411, 412, 413, 414, 415, 416, 417, 418, 419, 420, 421, 422, 423, 424, 425, 426, 427, 428, 429, 430, 431, 432, 433, 434, 435, 436, 437, 438, 439, 440, 441, 442, 443, 444, 445, 446, 447, 448, 449, 450, 451, 452, 453, 454, 455, 456, 457, 458, 459, 460, 461, 462, 463, 464, 465, 466, 467, 468, 469, 470, 471, 472, 473, 474, 475, 476, 477, 478, 479, 480, 481, 482, 483, 484, 485, 486, 487, 488, 489, 490, 491, 492],
      "AcquisitionTime": ["124526.037500", "124528.037500", "124530.037500", "124532.037500", "124534.037500", "124536.037500", "124538.037500", "124540.037500", "124542.037500", "124544.037500", "124546.037500", "124548.037500", "124550.037500", "124552.037500", "124554.037500", "124556.037500", "124558.037500", "124600.037500", "124602.037500", "124604.037500", "124606.037500", "124608.037500", "124610.037500", "124612.037500", "124614.037500", "124616.037500", "124618.037500", "124620.037500", "124622.037500", "124624.037500", "124626.037500", "124628.037500", "124630.037500", "124632.037500", "124634.037500", "124636.037500", "124638.037500", "124640.037500", "124642.037500", "124644.037500", "124646.037500", "124648.037500", "124650.037500", "124652.037500", "124654.037500", "124656.037500", "124658.037500", "124700.037500", "124702.037500", "124704.037500", "124706.037500", "124708.037500", "124710.037500", "124712.037500", "124714.037500", "124716.037500", "124718.037500", "124720.037500", "124722.037500", "124724.037500", "124726.037500", "124728.037500", "124730.037500", "124732.037500", "124734.037500", "124736.037500", "124738.037500", "124740.037500", "124742.037500", "124744.037500", "124746.037500", "124748.037500", "124750.037500", "124752.037500", "124754.037500", "124756.037500", "124758.037500", "124800.037500", "124802.037500", "124804.037500", "124806.037500", "124808.037500", "124810.037500", "124812.037500", "124814.037500", "124816.037500", "124818.037500", "124820.037500", "124822.037500", "124824.037500", "124826.037500", "124828.037500", "124830.037500", "124832.037500", "124834.037500", "124836.037500", "124838.037500", "124840.037500", "124842.037500", "124844.037500", "124846.037500", "124848.037500", "124850.037500", "124852.037500", "124854.037500", "124856.037500", "124858.037500", "124900.037500", "124902.037500", "124904.037500", "124906.037500", "124908.037500", "124910.037500", "124912.037500", "124914.037500", "124916.037500", "124918.037500", "124920.037500", "124922.037500", "124924.037500", "124926.037500", "124928.037500", "124930.037500", "124932.037500", "124934.037500", "124936.037500", "124938.037500", "124940.037500", "124942.037500", "124944.037500", "124946.037500", "124948.037500", "124950.037500", "124952.037500", "124954.037500", "124956.037500", "124958.037500", "125000.037500", "125002.037500", "125004.037500", "125006.037500", "125008.037500", "125010.037500", "125012.037500", "125014.037500", "125016.037500", "125018.037500", "125020.037500", "125022.037500", "125024.037500", "125026.037500", "125028.037500", "125030.037500", "125032.037500", "125034.037500", "125036.037500", "125038.037500", "125040.037500", "125042.037500", "125044.037500", "125046.037500", "125048.037500", "125050.037500", "125052.037500", "125054.037500", "125056.037500", "125058.037500", "125100.037500", "125102.037500", "125104.037500", "125106.037500", "125108.037500", "125110.037500", "125112.037500", "125114.037500", "125116.037500", "125118.037500", "125120.037500", "125122.037500", "125124.037500", "125126.037500", "125128.037500", "125130.037500", "125132.037500", "125134.037500", "125136.037500", "125138.037500", "125140.037500", "125142.037500", "125144.037500", "125146.037500", "125148.037500", "125150.037500", "125152.037500", "125154.037500", "125156.037500", "125158.037500", "125200.037500", "125202.037500", "125204.037500", "125206.037500", "125208.037500", "125210.037500", "125212.037500", "125214.037500", "125216.037500", "125218.037500", "125220.037500", "125222.037500", "125224.037500", "125226.037500", "125228.037500", "125230.037500", "125232.037500", "125234.037500", "125236.037500", "125238.037500", "125240.037500", "125242.037500", "125244.037500", "125246.037500", "125248.037500", "125250.037500", "125252.037500", "125254.037500", "125256.037500", "125258.037500", "125300.037500", "125302.037500", "125304.037500", "125306.037500", "125308.037500", "125310.037500", "125312.037500", "125314.037500", "125316.037500", "125318.037500", "125320.037500", "125322.037500", "125324.037500", "125326.037500", "125328.037500", "125330.037500", "125332.037500", "125334.037500", "125336.037500", "125338.037500", "125340.037500", "125342.037500", "125344.037500", "125346.037500", "125348.037500", "125350.037500", "125352.037500", "125354.037500", "125356.037500", "125358.037500", "125400.037500", "125402.037500", "125404.037500", "125406.037500", "125408.037500", "125410.037500", "125412.037500", "125414.037500", "125416.037500", "125418.037500", "125420.037500", "125422.037500", "125424.037500", "125426.037500", "125428.037500", "125430.037500", "125432.037500", "125434.037500", "125436.037500", "125438.037500", "125440.037500", "125442.037500", "125444.037500", "125446.037500", "125448.037500", "125450.037500", "125452.037500", "125454.037500", "125456.037500", "125458.037500", "125500.037500", "125502.037500", "125504.037500", "125506.037500", "125508.037500", "125510.037500", "125512.037500", "125514.037500", "125516.037500", "125518.037500", "125520.037500", "125522.037500", "125524.037500", "125526.037500", "125528.037500", "125530.037500", "125532.037500", "125534.037500", "125536.037500", "125538.037500", "125540.037500", "125542.037500", "125544.037500", "125546.037500", "125548.037500", "125550.037500", "125552.037500", "125554.037500", "125556.037500", "125558.037500", "125600.037500", "125602.037500", "125604.037500", "125606.037500", "125608.037500", "125610.037500", "125612.037500", "125614.037500", "125616.037500", "125618.037500", "125620.037500", "125622.037500", "125624.037500", "125626.037500", "125628.037500", "125630.037500", "125632.037500", "125634.037500", "125636.037500", "125638.037500", "125640.037500", "125642.037500", "125644.037500", "125646.037500", "125648.037500", "125650.037500", "125652.037500", "125654.037500", "125656.037500", "125658.037500", "125700.037500", "125702.037500", "125704.037500", "125706.037500", "125708.037500", "125710.037500", "125712.037500", "125714.037500", "125716.037500", "125718.037500", "125720.037500", "125722.037500", "125724.037500", "125726.037500", "125728.037500", "125730.037500", "125732.037500", "125734.037500", "125736.037500", "125738.037500", "125740.037500", "125742.037500", "125744.037500", "125746.037500", "125748.037500", "125750.037500", "125752.037500", "125754.037500", "125756.037500", "125758.037500", "125800.037500", "125802.037500", "125804.037500", "125806.037500", "125808.037500", "125810.037500", "125812.037500", "125814.037500", "125816.037500", "125818.037500", "125820.037500", "125822.037500", "125824.037500", "125826.037500", "125828.037500", "125830.037500", "125832.037500", "125834.037500", "125836.037500", "125838.037500", "125840.037500", "125842.037500", "125844.037500", "125846.037500", "125848.037500", "125850.037500", "125852.037500", "125854.037500", "125856.037500", "125858.037500", "125900.037500", "125902.037500", "125904.037500", "125906.037500", "125908.037500", "125910.037500", "125912.037500", "125914.037500", "125916.037500", "125918.037500", "125920.037500", "125922.037500", "125924.037500", "125926.037500", "125928.037500", "125930.037500", "125932.037500", "125934.037500", "125936.037500", "125938.037500", "125940.037500", "125942.037500", "125944.037500", "125946.037500", "125948.037500", "125950.037500", "125952.037500", "125954.037500", "125956.037500", "125958.037500", "130000.037500", "130002.037500", "130004.037500", "130006.037500", "130008.037500", "130010.037500", "130012.037500", "130014.037500", "130016.037500", "130018.037500", "130020.037500", "130022.037500", "130024.037500", "130026.037500", "130028.037500", "130030.037500", "130032.037500", "130034.037500", "130036.037500", "130038.037500", "130040.037500", "130042.037500", "130044.037500", "130046.037500", "130048.037500", "130050.037500", "130052.037500", "130054.037500", "130056.037500", "130058.037500", "130100.037500", "130102.037500", "130104.037500", "130106.037500", "130108.037500", "130110.037500", "130112.037500", "130114.037500", "130116.037500", "130118.037500", "130120.037500", "130122.037500", "130124.037500", "130126.037500", "130128.037500", "130130.037500", "130132.037500", "130134.037500", "130136.037500", "130138.037500", "130140.037500", "130142.037500", "130144.037500", "130146.037500", "130148.037500"],
      "ContentTime": ["124626.461000", "124626.465000", "124626.467000", "124626.470000", "124626.472000", "124626.475000", "124626.477000", "124626.480000", "124626.483000", "124626.485000", "124626.491000", "124626.493000", "124626.496000", "124626.498000", "124626.501000", "124626.504000", "124626.506000", "124626.509000", "124626.514000", "124626.517000", "124626.519000", "124626.522000", "124626.525000", "124626.527000", "124626.530000", "124626.533000", "124626.535000", "124626.538000", "124626.540000", "124706.424000", "124706.428000", "124706.430000", "124706.433000", "124706.435000", "124706.438000", "124706.440000", "124706.443000", "124706.454000", "124706.457000", "124706.459000", "124706.462000", "124706.464000", "124706.467000", "124706.469000", "124706.472000", "124706.474000", "124706.477000", "124706.480000", "124706.482000", "124746.425000", "124746.428000", "124746.430000", "124746.433000", "124746.435000", "124746.438000", "124746.440000", "124746.443000", "124746.446000", "124746.448000", "124746.451000", "124746.453000", "124746.456000", "124746.459000", "124746.461000", "124746.464000", "124746.466000", "124746.469000", "124746.471000", "124746.474000", "124826.423000", "124826.426000", "124826.429000", "124826.431000", "124826.434000", "124826.437000", "124826.439000", "124826.442000", "124826.444000", "124826.447000", "124826.450000", "124826.452000", "124826.455000", "124826.457000", "124826.460000", "124826.463000", "124826.465000", "124826.468000", "124826.470000", "124826.473000", "124906.425000", "124906.427000", "124906.430000", "124906.432000", "124906.435000", "124906.438000", "124906.440000", "124906.443000", "124906.445000", "124906.448000", "124906.451000", "124906.453000", "124906.456000", "124906.458000", "124906.461000", "124906.463000", "124906.466000", "124906.469000", "124906.471000", "124906.474000", "124946.442000", "124946.445000", "124946.447000", "124946.450000", "124946.452000", "124946.455000", "124946.457000", "124946.460000", "124946.462000", "124946.465000", "124946.468000", "124946.470000", "124946.473000", "124946.475000", "124946.478000", "124946.480000", "124946.483000", "124946.486000", "124946.488000", "124946.491000", "125026.424000", "125026.427000", "125026.430000", "125026.432000", "125026.435000", "125026.438000", "125026.440000", "125026.443000", "125026.445000", "125026.448000", "125026.451000", "125026.453000", "125026.456000", "125026.458000", "125026.461000", "125026.463000", "125026.466000", "125026.468000", "125026.471000", "125026.473000", "125046.424000", "125046.427000", "125046.429000", "125046.432000", "125046.434000", "125046.437000", "125046.439000", "125046.442000", "125046.444000", "125046.447000", "125126.424000", "125126.427000", "125126.430000", "125126.433000", "125126.435000", "125126.438000", "125126.440000", "125126.443000", "125126.446000", "125126.448000", "125126.451000", "125126.454000", "125126.456000", "125126.459000", "125126.461000", "125126.464000", "125126.467000", "125126.469000", "125126.472000", "125126.474000", "125206.424000", "125206.427000", "125206.430000", "125206.432000", "125206.435000", "125206.437000", "125206.440000", "125206.442000", "125206.445000", "125206.448000", "125206.450000", "125206.453000", "125206.455000", "125206.458000", "125206.461000", "125206.463000", "125206.466000", "125206.468000", "125206.471000", "125206.474000", "125246.424000", "125246.427000", "125246.430000", "125246.432000", "125246.435000", "125246.438000", "125246.440000", "125246.443000", "125246.445000", "125246.448000", "125246.450000", "125246.453000", "125246.456000", "125246.458000", "125246.461000", "125246.463000", "125246.466000", "125246.469000", "125246.471000", "125246.474000", "125326.424000", "125326.427000", "125326.430000", "125326.432000", "125326.435000", "125326.437000", "125326.440000", "125326.443000", "125326.445000", "125326.448000", "125326.450000", "125326.453000", "125326.456000", "125326.458000", "125326.461000", "125326.463000", "125326.466000", "125326.468000", "125326.471000", "125326.473000", "125406.424000", "125406.427000", "125406.430000", "125406.432000", "125406.435000", "125406.438000", "125406.440000", "125406.443000", "125406.445000", "125406.448000", "125406.451000", "125406.453000", "125406.456000", "125406.458000", "125406.461000", "125406.463000", "125406.466000", "125406.468000", "125406.471000", "125406.473000", "125446.424000", "125446.427000", "125446.430000", "125446.433000", "125446.435000", "125446.438000", "125446.440000", "125446.443000", "125446.446000", "125446.448000", "125446.451000", "125446.453000", "125446.456000", "125446.458000", "125446.461000", "125446.464000", "125446.467000", "125446.469000", "125446.472000", "125446.474000", "125526.423000", "125526.426000", "125526.429000", "125526.432000", "125526.434000", "125526.437000", "125526.439000", "125526.442000", "125526.444000", "125526.447000", "125526.450000", "125526.453000", "125526.455000", "125526.458000", "125526.460000", "125526.463000", "125526.466000", "125526.468000", "125526.471000", "125526.473000", "125606.425000", "125606.428000", "125606.430000", "125606.447000", "125606.450000", "125606.452000", "125606.455000", "125606.457000", "125606.460000", "125606.462000", "125606.465000", "125606.468000", "125606.470000", "125606.473000", "125606.475000", "125606.478000", "125606.480000", "125606.483000", "125606.485000", "125606.488000", "125646.424000", "125646.427000", "125646.430000", "125646.433000", "125646.435000", "125646.438000", "125646.440000", "125646.443000", "125646.445000", "125646.448000", "125646.451000", "125646.453000", "125646.456000", "125646.458000", "125646.461000", "125646.464000", "125646.466000", "125646.469000", "125646.471000", "125646.474000", "125726.425000", "125726.427000", "125726.430000", "125726.433000", "125726.435000", "125726.438000", "125726.440000", "125726.443000", "125726.445000", "125726.448000", "125726.451000", "125726.453000", "125726.456000", "125726.458000", "125726.461000", "125726.463000", "125726.466000", "125726.468000", "125726.471000", "125726.474000", "125806.425000", "125806.427000", "125806.430000", "125806.433000", "125806.435000", "125806.438000", "125806.440000", "125806.443000", "125806.445000", "125806.448000", "125806.451000", "125806.453000", "125806.456000", "125806.458000", "125806.461000", "125806.464000", "125806.466000", "125806.469000", "125806.471000", "125806.474000", "125846.425000", "125846.428000", "125846.430000", "125846.433000", "125846.435000", "125846.438000", "125846.441000", "125846.443000", "125846.446000", "125846.448000", "125846.451000", "125846.453000", "125846.456000", "125846.458000", "125846.461000", "125846.464000", "125846.466000", "125846.469000", "125846.471000", "125846.474000", "125926.425000", "125926.428000", "125926.430000", "125926.433000", "125926.435000", "125926.438000", "125926.441000", "125926.443000", "125926.446000", "125926.448000", "125926.451000", "125926.454000", "125926.456000", "125926.459000", "125926.462000", "125926.465000", "125926.467000", "125926.470000", "125926.472000", "125926.475000", "130006.424000", "130006.427000", "130006.429000", "130006.432000", "130006.434000", "130006.437000", "130006.440000", "130006.442000", "130006.445000", "130006.447000", "130006.450000", "130006.453000", "130006.456000", "130006.458000", "130006.461000", "130006.463000", "130006.466000", "130006.468000", "130006.471000", "130006.473000", "130046.425000", "130046.428000", "130046.430000", "130046.433000", "130046.435000", "130046.438000", "130046.440000", "130046.443000", "130046.446000", "130046.448000", "130046.451000", "130046.453000", "130046.456000", "130046.459000", "130046.461000", "130046.464000", "130046.466000", "130046.469000", "130046.471000", "130046.474000", "130126.425000", "130126.427000", "130126.430000", "130126.433000", "130126.435000", "130126.438000", "130126.440000", "130126.443000", "130126.445000", "130126.448000", "130126.451000", "130126.453000", "130126.456000", "130126.458000", "130126.461000", "130126.463000", "130126.466000", "130126.469000", "130126.471000", "130126.474000", "130151.584000", "130151.586000", "130151.589000", "130151.592000", "130151.594000", "130151.597000", "130151.599000", "130151.602000", "130151.604000", "130151.607000", "130151.610000", "130151.612000", "130151.615000"],
