{
  "AcquisitionMatrixPE": 96,
  "AcquisitionNumber": 1,
  "AcquisitionTime": "11:28:50.427500",
  "BandwidthPerPixelPhaseEncode": 20.425,
  "BaseResolution": 96,
  "BodyPartExamined": "BRAIN",
  "CoilCombinationMethod": "Sum of Squares",
  "ConsistencyInfo": "N4_VE11C_LATEST_20160120",
  "ConversionSoftware": "dcm2niix",
  "ConversionSoftwareVersion": "v1.0.20211006",
  "DerivedVendorReportedEchoSpacing": 0.000509996,
  "DeviceSerialNumber": "166054",
  "DwellTime": 2.3e-06,
  "EchoTime": 0.03,
  "EchoTrainLength": 96,
  "EffectiveEchoSpacing": 0.000509996,
  "FlipAngle": 75,
  "HeudiconvVersion": "0.11.3+d20220512",
  "ImageComments": "Unaliased MB2/PE2",
  "ImageOrientationPatientDICOM": [0.996291, 0.0296496, 0.0807782, 0.00260834, 0.927923, -0.372763],
  "ImageOrientationText": "Tra>Cor(-21.9)>Sag(4.9)",
  "ImageType": [
    "ORIGINAL",
    "PRIMARY",
    "M",
    "MB",
    "ND",
    "MOSAIC"
],
  "ImagingFrequency": 123.259,
  "InPlanePhaseEncodingDirectionDICOM": "COL",
  "InstitutionAddress": "Street StreetNo,City,District,IL,ZIP",
  "InstitutionName": "Weizmann Institute",
  "InstitutionalDepartmentName": "Department",
  "MRAcquisitionType": "2D",
  "MagneticFieldStrength": 3,
  "Manufacturer": "Siemens",
  "ManufacturersModelName": "Prisma",
  "MatrixCoilMode": "SENSE",
  "Modality": "MR",
  "MultibandAccelerationFactor": 2,
  "PartialFourier": 1,
  "PatientPosition": "HFS",
  "PercentPhaseFOV": 100,
  "PercentSampling": 100,
  "PhaseEncodingDirection": "j-",
  "PhaseEncodingSteps": 96,
  "PhaseResolution": 1,
  "PixelBandwidth": 2265,
  "ProcedureStepDescription": "Weizmann^Sobel",
  "ProtocolName": "EPI_PSAP_iso2.5",
  "PulseSequenceDetails": "%CustomerSeq%\\cmrr_mbep2d_bold",
  "ReceiveCoilActiveElements": "HEA;HEP",
  "ReceiveCoilName": "Head_32",
  "ReconMatrixPE": 96,
  "RepetitionTime": 2,
  "SAR": 0.121338,
  "ScanOptions": "FS",
  "ScanningSequence": "EP",
  "SequenceName": "epfid2d1_96",
  "SequenceVariant": "SK\\SS",
  "SeriesDescription": "EPI_PSAP_iso2.5",
  "SeriesNumber": 6,
  "ShimSetting": [5914, -4063, -1943, 496, 94, -106, -6, 7],
  "SliceThickness": 2.5,
  "SliceTiming": [0, 0.92, 1.84, 0.7775, 1.6975, 0.6375, 1.555, 0.495, 1.415, 0.355, 1.2725, 0.2125, 1.1325, 0.07, 0.99, 1.91, 0.85, 1.7675, 0.7075, 1.6275, 0.565, 1.485, 0.425, 1.345, 0.2825, 1.2025, 0.1425, 1.06, 0, 0.92, 1.84, 0.7775, 1.6975, 0.6375, 1.555, 0.495, 1.415, 0.355, 1.2725, 0.2125, 1.1325, 0.07, 0.99, 1.91, 0.85, 1.7675, 0.7075, 1.6275, 0.565, 1.485, 0.425, 1.345, 0.2825, 1.2025, 0.1425, 1.06],
  "SoftwareVersions": "syngo MR E11",
  "SpacingBetweenSlices": 2.5,
  "StationName": "AWP166054",
  "TaskName": "PSAP",
  "TotalReadoutTime": 0.0484496,
  "TxRefAmp": 237.9,
  "VendorReportedEchoSpacing": 0.00051,
  "WipMemBlock": "4abd74b9-855f-437a-9980-49915faa0294||Sequence: R016 ve11c/master r/e634e98; Dec 19 2017 11:00:25 by eja",
  "dcmmeta_affine": [
    [-2.490727424621582, 0.006520841270685196, 0.2150205671787262, 108.41654968261719],
    [-0.07412389665842056, 2.3198070526123047, -0.928978681564331, -81.95309448242188],
    [0.20194557309150696, 0.931908369064331, 2.311009407043457, -113.35115814208984],
    [0.0, 0.0, 0.0, 1.0]
],
  "dcmmeta_reorient_transform": [
    [0.0, -1.0, 0.0, 95.0],
    [1.0, 0.0, 0.0, 0.0],
    [0.0, 0.0, 1.0, 0.0],
    [0.0, 0.0, 0.0, 1.0]
],
  "dcmmeta_shape": [96, 96, 56, 490],
  "dcmmeta_slice_dim": 2,
  "dcmmeta_version": 0.6,
  "global": {
    "const": {
      "AcquisitionMatrix": [96, 0, 0, 96],
      "AngioFlag": "N",
      "BitsAllocated": 16,
      "BitsStored": 16,
      "BodyPartExamined": "BRAIN",
      "Columns": 768,
      "EchoNumbers": 1,
      "EchoTime": 30.0,
      "EchoTrainLength": 96,
      "FlipAngle": 75.0,
      "HighBit": 15,
      "ImageOrientationPatient": [0.99629101218655, 0.02964955941766, 0.08077823136614, 0.0026083365069, 0.92792277939578, -0.3727633459168],
      "ImagePositionPatient": [-948.11148273216, -942.78932746305, 220.44763578038],
      "ImageType": [
        "ORIGINAL",
        "PRIMARY",
        "M",
        "MB",
        "ND",
        "MOSAIC"
],
      "ImagedNucleus": "1H",
      "ImagingFrequency": 123.259307,
      "InPlanePhaseEncodingDirection": "COL",
      "MRAcquisitionType": "2D",
      "MagneticFieldStrength": 3.0,
      "Manufacturer": "SIEMENS",
      "ManufacturerModelName": "Prisma",
      "Modality": "MR",
      "NumberOfAverages": 1.0,
      "NumberOfPhaseEncodingSteps": 96,
      "PercentPhaseFieldOfView": 100.0,
      "PercentSampling": 100.0,
      "PerformedProcedureStepStartTime": "110804.774000",
      "PhotometricInterpretation": "MONOCHROME2",
      "PixelBandwidth": 2265.0,
      "PixelRepresentation": 0,
      "PixelSpacing": [2.5, 2.5],
      "ProtocolName": "EPI_PSAP_iso2.5",
      "RepetitionTime": 2000.0,
      "Rows": 768,
      "SAR": 0.12133760967906,
      "SamplesPerPixel": 1,
      "ScanOptions": "FS",
      "ScanningSequence": "EP",
      "SequenceName": "epfid2d1_96",
      "SequenceVariant": [
        "SK",
        "SS"
],
      "SeriesDescription": "EPI_PSAP_iso2.5",
      "SeriesNumber": 6,
      "SeriesTime": "112945.152000",
      "SliceLocation": -65.004450001145,
      "SliceThickness": 2.5,
      "SmallestImagePixelValue": 0,
      "SoftwareVersions": "syngo MR E11",
      "SpacingBetweenSlices": 2.4999999512118,
      "SpecificCharacterSet": "ISO_IR 100",
      "StudyID": "3",
      "StudyTime": "110804.722000",
      "TransmitCoilName": "Body",
      "VariableFlipAngleFlag": "N",
      "WindowCenterWidthExplanation": "Algo1",
      "dBdt": 0.0},
    "slices": {}
  },
  "time": {
    "samples": {
      "AcquisitionNumber": [1, 2, 3, 4, 5, 6, 7, 8, 9, 10, 11, 12, 13, 14, 15, 16, 17, 18, 19, 20, 21, 22, 23, 24, 25, 26, 27, 28, 29, 30, 31, 32, 33, 34, 35, 36, 37, 38, 39, 40, 41, 42, 43, 44, 45, 46, 47, 48, 49, 50, 51, 52, 53, 54, 55, 56, 57, 58, 59, 60, 61, 62, 63, 64, 65, 66, 67, 68, 69, 70, 71, 72, 73, 74, 75, 76, 77, 78, 79, 80, 81, 82, 83, 84, 85, 86, 87, 88, 89, 90, 91, 92, 93, 94, 95, 96, 97, 98, 99, 100, 101, 102, 103, 104, 105, 106, 107, 108, 109, 110, 111, 112, 113, 114, 115, 116, 117, 118, 119, 120, 121, 122, 123, 124, 125, 126, 127, 128, 129, 130, 131, 132, 133, 134, 135, 136, 137, 138, 139, 140, 141, 142, 143, 144, 145, 146, 147, 148, 149, 150, 151, 152, 153, 154, 155, 156, 157, 158, 159, 160, 161, 162, 163, 164, 165, 166, 167, 168, 169, 170, 171, 172, 173, 174, 175, 176, 177, 178, 179, 180, 181, 182, 183, 184, 185, 186, 187, 188, 189, 190, 191, 192, 193, 194, 195, 196, 197, 198, 199, 200, 201, 202, 203, 204, 205, 206, 207, 208, 209, 210, 211, 212, 213, 214, 215, 216, 217, 218, 219, 220, 221, 222, 223, 224, 225, 226, 227, 228, 229, 230, 231, 232, 233, 234, 235, 236, 237, 238, 239, 240, 241, 242, 243, 244, 245, 246, 247, 248, 249, 250, 251, 252, 253, 254, 255, 256, 257, 258, 259, 260, 261, 262, 263, 264, 265, 266, 267, 268, 269, 270, 271, 272, 273, 274, 275, 276, 277, 278, 279, 280, 281, 282, 283, 284, 285, 286, 287, 288, 289, 290, 291, 292, 293, 294, 295, 296, 297, 298, 299, 300, 301, 302, 303, 304, 305, 306, 307, 308, 309, 310, 311, 312, 313, 314, 315, 316, 317, 318, 319, 320, 321, 322, 323, 324, 325, 326, 327, 328, 329, 330, 331, 332, 333, 334, 335, 336, 337, 338, 339, 340, 341, 342, 343, 344, 345, 346, 347, 348, 349, 350, 351, 352, 353, 354, 355, 356, 357, 358, 359, 360, 361, 362, 363, 364, 365, 366, 367, 368, 369, 370, 371, 372, 373, 374, 375, 376, 377, 378, 379, 380, 381, 382, 383, 384, 385, 386, 387, 388, 389, 390, 391, 392, 393, 394, 395, 396, 397, 398, 399, 400, 401, 402, 403, 404, 405, 406, 407, 408, 409, 410, 411, 412, 413, 414, 415, 416, 417, 418, 419, 420, 421, 422, 423, 424, 425, 426, 427, 428, 429, 430, 431, 432, 433, 434, 435, 436, 437, 438, 439, 440, 441, 442, 443, 444, 445, 446, 447, 448, 449, 450, 451, 452, 453, 454, 455, 456, 457, 458, 459, 460, 461, 462, 463, 464, 465, 466, 467, 468, 469, 470, 471, 472, 473, 474, 475, 476, 477, 478, 479, 480, 481, 482, 483, 484, 485, 486, 487, 488, 489, 490],
      "AcquisitionTime": ["112850.427500", "112852.427500", "112854.427500", "112856.427500", "112858.427500", "112900.427500", "112902.427500", "112904.427500", "112906.427500", "112908.427500", "112910.427500", "112912.427500", "112914.427500", "112916.427500", "112918.427500", "112920.427500", "112922.427500", "112924.427500", "112926.427500", "112928.427500", "112930.427500", "112932.427500", "112934.427500", "112936.427500", "112938.427500", "112940.427500", "112942.427500", "112944.427500", "112946.427500", "112948.427500", "112950.427500", "112952.427500", "112954.427500", "112956.427500", "112958.427500", "113000.427500", "113002.427500", "113004.427500", "113006.427500", "113008.427500", "113010.427500", "113012.427500", "113014.427500", "113016.427500", "113018.427500", "113020.427500", "113022.427500", "113024.427500", "113026.427500", "113028.427500", "113030.427500", "113032.427500", "113034.427500", "113036.427500", "113038.427500", "113040.427500", "113042.427500", "113044.427500", "113046.427500", "113048.427500", "113050.427500", "113052.427500", "113054.427500", "113056.427500", "113058.427500", "113100.427500", "113102.427500", "113104.427500", "113106.427500", "113108.427500", "113110.427500", "113112.427500", "113114.427500", "113116.427500", "113118.427500", "113120.427500", "113122.427500", "113124.427500", "113126.427500", "113128.427500", "113130.427500", "113132.427500", "113134.427500", "113136.427500", "113138.427500", "113140.427500", "113142.427500", "113144.427500", "113146.427500", "113148.427500", "113150.427500", "113152.427500", "113154.427500", "113156.427500", "113158.427500", "113200.427500", "113202.427500", "113204.427500", "113206.427500", "113208.427500", "113210.427500", "113212.427500", "113214.427500", "113216.427500", "113218.427500", "113220.427500", "113222.427500", "113224.427500", "113226.427500", "113228.427500", "113230.427500", "113232.427500", "113234.427500", "113236.427500", "113238.427500", "113240.427500", "113242.427500", "113244.427500", "113246.427500", "113248.427500", "113250.427500", "113252.427500", "113254.427500", "113256.427500", "113258.427500", "113300.427500", "113302.427500", "113304.427500", "113306.427500", "113308.427500", "113310.427500", "113312.427500", "113314.427500", "113316.427500", "113318.427500", "113320.427500", "113322.427500", "113324.427500", "113326.427500", "113328.427500", "113330.427500", "113332.427500", "113334.427500", "113336.427500", "113338.427500", "113340.427500", "113342.427500", "113344.427500", "113346.427500", "113348.427500", "113350.427500", "113352.427500", "113354.427500", "113356.427500", "113358.427500", "113400.427500", "113402.427500", "113404.427500", "113406.427500", "113408.427500", "113410.427500", "113412.427500", "113414.427500", "113416.427500", "113418.427500", "113420.427500", "113422.427500", "113424.427500", "113426.427500", "113428.427500", "113430.427500", "113432.427500", "113434.427500", "113436.427500", "113438.427500", "113440.427500", "113442.427500", "113444.427500", "113446.427500", "113448.427500", "113450.427500", "113452.427500", "113454.427500", "113456.427500", "113458.427500", "113500.427500", "113502.427500", "113504.427500", "113506.427500", "113508.427500", "113510.427500", "113512.427500", "113514.427500", "113516.427500", "113518.427500", "113520.427500", "113522.427500", "113524.427500", "113526.427500", "113528.427500", "113530.427500", "113532.427500", "113534.427500", "113536.427500", "113538.427500", "113540.427500", "113542.427500", "113544.427500", "113546.427500", "113548.427500", "113550.427500", "113552.427500", "113554.427500", "113556.427500", "113558.427500", "113600.427500", "113602.427500", "113604.427500", "113606.427500", "113608.427500", "113610.427500", "113612.427500", "113614.427500", "113616.427500", "113618.427500", "113620.427500", "113622.427500", "113624.427500", "113626.427500", "113628.427500", "113630.427500", "113632.427500", "113634.427500", "113636.427500", "113638.427500", "113640.427500", "113642.427500", "113644.427500", "113646.427500", "113648.427500", "113650.427500", "113652.427500", "113654.427500", "113656.427500", "113658.427500", "113700.427500", "113702.427500", "113704.427500", "113706.427500", "113708.427500", "113710.427500", "113712.427500", "113714.427500", "113716.427500", "113718.427500", "113720.427500", "113722.427500", "113724.427500", "113726.427500", "113728.427500", "113730.427500", "113732.427500", "113734.427500", "113736.427500", "113738.427500", "113740.427500", "113742.427500", "113744.427500", "113746.427500", "113748.427500", "113750.427500", "113752.427500", "113754.427500", "113756.427500", "113758.427500", "113800.427500", "113802.427500", "113804.427500", "113806.427500", "113808.427500", "113810.427500", "113812.427500", "113814.427500", "113816.427500", "113818.427500", "113820.427500", "113822.427500", "113824.427500", "113826.427500", "113828.427500", "113830.427500", "113832.427500", "113834.427500", "113836.427500", "113838.427500", "113840.427500", "113842.427500", "113844.427500", "113846.427500", "113848.427500", "113850.427500", "113852.427500", "113854.427500", "113856.427500", "113858.427500", "113900.427500", "113902.427500", "113904.427500", "113906.427500", "113908.427500", "113910.427500", "113912.427500", "113914.427500", "113916.427500", "113918.427500", "113920.427500", "113922.427500", "113924.427500", "113926.427500", "113928.427500", "113930.427500", "113932.427500", "113934.427500", "113936.427500", "113938.427500", "113940.427500", "113942.427500", "113944.427500", "113946.427500", "113948.427500", "113950.427500", "113952.427500", "113954.427500", "113956.427500", "113958.427500", "114000.427500", "114002.427500", "114004.427500", "114006.427500", "114008.427500", "114010.427500", "114012.427500", "114014.427500", "114016.427500", "114018.427500", "114020.427500", "114022.427500", "114024.427500", "114026.427500", "114028.427500", "114030.427500", "114032.427500", "114034.427500", "114036.427500", "114038.427500", "114040.427500", "114042.427500", "114044.427500", "114046.427500", "114048.427500", "114050.427500", "114052.427500", "114054.427500", "114056.427500", "114058.427500", "114100.427500", "114102.427500", "114104.427500", "114106.427500", "114108.427500", "114110.427500", "114112.427500", "114114.427500", "114116.427500", "114118.427500", "114120.427500", "114122.427500", "114124.427500", "114126.427500", "114128.427500", "114130.427500", "114132.427500", "114134.427500", "114136.427500", "114138.427500", "114140.427500", "114142.427500", "114144.427500", "114146.427500", "114148.427500", "114150.427500", "114152.427500", "114154.427500", "114156.427500", "114158.427500", "114200.427500", "114202.427500", "114204.427500", "114206.427500", "114208.427500", "114210.427500", "114212.427500", "114214.427500", "114216.427500", "114218.427500", "114220.427500", "114222.427500", "114224.427500", "114226.427500", "114228.427500", "114230.427500", "114232.427500", "114234.427500", "114236.427500", "114238.427500", "114240.427500", "114242.427500", "114244.427500", "114246.427500", "114248.427500", "114250.427500", "114252.427500", "114254.427500", "114256.427500", "114258.427500", "114300.427500", "114302.427500", "114304.427500", "114306.427500", "114308.427500", "114310.427500", "114312.427500", "114314.427500", "114316.427500", "114318.427500", "114320.427500", "114322.427500", "114324.427500", "114326.427500", "114328.427500", "114330.427500", "114332.427500", "114334.427500", "114336.427500", "114338.427500", "114340.427500", "114342.427500", "114344.427500", "114346.427500", "114348.427500", "114350.427500", "114352.427500", "114354.427500", "114356.427500", "114358.427500", "114400.427500", "114402.427500", "114404.427500", "114406.427500", "114408.427500", "114410.427500", "114412.427500", "114414.427500", "114416.427500", "114418.427500", "114420.427500", "114422.427500", "114424.427500", "114426.427500", "114428.427500", "114430.427500", "114432.427500", "114434.427500", "114436.427500", "114438.427500", "114440.427500", "114442.427500", "114444.427500", "114446.427500", "114448.427500", "114450.427500", "114452.427500", "114454.427500", "114456.427500", "114458.427500", "114500.427500", "114502.427500", "114504.427500", "114506.427500", "114508.427500"],
      "ContentTime": ["112945.154000", "112945.158000", "112945.160000", "112945.163000", "112945.166000", "112945.168000", "112945.171000", "112945.173000", "112945.176000", "112945.179000", "112945.181000", "112945.184000", "112945.186000", "112945.189000", "112945.192000", "112945.200000", "112945.203000", "112945.205000", "112945.208000", "112945.210000", "112945.213000", "112945.216000", "112945.218000", "112945.221000", "112945.223000", "112945.226000", "112945.229000", "113025.119000", "113025.121000", "113025.124000", "113025.132000", "113025.136000", "113025.139000", "113025.142000", "113025.144000", "113025.147000", "113025.151000", "113025.155000", "113025.158000", "113025.161000", "113025.164000", "113025.167000", "113025.169000", "113025.172000", "113025.175000", "113025.177000", "113025.180000", "113105.119000", "113105.122000", "113105.128000", "113105.131000", "113105.133000", "113105.136000", "113105.139000", "113105.141000", "113105.144000", "113105.146000", "113105.149000", "113105.151000", "113105.154000", "113105.157000", "113105.159000", "113105.162000", "113105.164000", "113105.167000", "113105.169000", "113105.172000", "113145.119000", "113145.121000", "113145.124000", "113145.127000", "113145.129000", "113145.132000", "113145.134000", "113145.137000", "113145.140000", "113145.142000", "113145.144000", "113145.147000", "113145.150000", "113145.152000", "113145.155000", "113145.158000", "113145.160000", "113145.163000", "113145.165000", "113145.168000", "113225.118000", "113225.121000", "113225.124000", "113225.126000", "113225.129000", "113225.132000", "113225.134000", "113225.137000", "113225.140000", "113225.142000", "113225.145000", "113225.147000", "113225.150000", "113225.152000", "113225.155000", "113225.157000", "113225.160000", "113225.163000", "113225.165000", "113225.168000", "113305.119000", "113305.121000", "113305.124000", "113305.126000", "113305.129000", "113305.132000", "113305.134000", "113305.137000", "113305.140000", "113305.142000", "113305.145000", "113305.148000", "113305.150000", "113305.153000", "113305.155000", "113305.158000", "113305.170000", "113305.173000", "113305.176000", "113305.178000", "113345.120000", "113345.122000", "113345.125000", "113345.127000", "113345.130000", "113345.133000", "113345.135000", "113345.138000", "113345.140000", "113345.143000", "113345.145000", "113345.148000", "113345.150000", "113345.153000", "113345.155000", "113345.158000", "113345.161000", "113345.163000", "113345.166000", "113345.168000", "113425.118000", "113425.121000", "113425.124000", "113425.127000", "113425.129000", "113425.132000", "113425.135000", "113425.138000", "113425.140000", "113425.143000", "113425.145000", "113425.148000", "113425.150000", "113425.153000", "113425.155000", "113425.158000", "113425.161000", "113425.163000", "113425.166000", "113425.168000", "113505.119000", "113505.121000", "113505.124000", "113505.127000", "113505.129000", "113505.132000", "113505.134000", "113505.137000", "113505.140000", "113505.142000", "113505.145000", "113505.147000", "113505.150000", "113505.152000", "113505.155000", "113505.158000", "113505.161000", "113505.163000", "113505.166000", "113505.168000", "113545.120000", "113545.122000", "113545.125000", "113545.127000", "113545.130000", "113545.133000", "113545.135000", "113545.138000", "113545.141000", "113545.143000", "113545.146000", "113545.148000", "113545.151000", "113545.153000", "113545.156000", "113545.158000", "113545.161000", "113545.164000", "113545.166000", "113545.169000", "113625.119000", "113625.121000", "113625.124000", "113625.126000", "113625.129000", "113625.132000", "113625.134000", "113625.137000", "113625.139000", "113625.142000", "113625.145000", "113625.147000", "113625.150000", "113625.152000", "113625.155000", "113625.157000", "113625.160000", "113625.163000", "113625.165000", "113625.168000", "113705.118000", "113705.121000", "113705.124000", "113705.126000", "113705.129000", "113705.131000", "113705.134000", "113705.137000", "113705.139000", "113705.142000", "113705.144000", "113705.147000", "113705.149000", "113705.152000", "113705.154000", "113705.157000", "113705.159000", "113705.162000", "113705.164000", "113705.167000", "113745.119000", "113745.121000", "113745.124000", "113745.126000", "113745.129000", "113745.131000", "113745.134000", "113745.136000", "113745.139000", "113745.141000", "113745.144000", "113745.147000", "113745.149000", "113745.152000", "113745.154000", "113745.157000", "113745.159000", "113745.162000", "113745.164000", "113745.167000", "113825.119000", "113825.122000", "113825.125000", "113825.127000", "113825.130000", "113825.132000", "113825.135000", "113825.138000", "113825.140000", "113825.143000", "113825.145000", "113825.148000", "113825.150000", "113825.153000", "113825.155000", "113825.158000", "113825.160000", "113825.163000", "113825.165000", "113825.168000", "113905.118000", "113905.121000", "113905.124000", "113905.126000", "113905.129000", "113905.131000", "113905.134000", "113905.136000", "113905.139000", "113905.142000", "113905.144000", "113905.147000", "113905.149000", "113905.152000", "113905.154000", "113905.157000", "113905.159000", "113905.162000", "113905.164000", "113905.167000", "113945.119000", "113945.121000", "113945.124000", "113945.126000", "113945.129000", "113945.132000", "113945.134000", "113945.137000", "113945.139000", "113945.159000", "113945.161000", "113945.164000", "113945.167000", "113945.169000", "113945.172000", "113945.174000", "113945.177000", "113945.179000", "113945.182000", "113945.184000", "114025.119000", "114025.122000", "114025.125000", "114025.127000", "114025.130000", "114025.132000", "114025.135000", "114025.137000", "114025.140000", "114025.142000", "114025.170000", "114025.173000", "114025.175000", "114025.178000", "114025.180000", "114025.183000", "114025.185000", "114025.188000", "114025.190000", "114025.193000", "114105.118000", "114105.121000", "114105.124000", "114105.126000", "114105.129000", "114105.131000", "114105.134000", "114105.136000", "114105.139000", "114105.141000", "114105.144000", "114105.146000", "114105.149000", "114105.151000", "114105.154000", "114105.157000", "114105.159000", "114105.162000", "114105.164000", "114105.167000", "114145.119000", "114145.121000", "114145.124000", "114145.127000", "114145.129000", "114145.132000", "114145.134000", "114145.137000", "114145.140000", "114145.142000", "114145.145000", "114145.147000", "114145.150000", "114145.152000", "114145.155000", "114145.157000", "114145.160000", "114145.162000", "114145.165000", "114145.168000", "114225.119000", "114225.121000", "114225.124000", "114225.126000", "114225.129000", "114225.132000", "114225.134000", "114225.137000", "114225.139000", "114225.142000", "114225.144000", "114225.147000", "114225.149000", "114225.152000", "114225.154000", "114225.157000", "114225.159000", "114225.162000", "114225.164000", "114225.167000", "114305.119000", "114305.122000", "114305.125000", "114305.127000", "114305.130000", "114305.132000", "114305.135000", "114305.138000", "114305.140000", "114305.143000", "114305.145000", "114305.148000", "114305.150000", "114305.153000", "114305.155000", "114305.158000", "114305.160000", "114305.163000", "114305.165000", "114305.168000", "114345.119000", "114345.122000", "114345.124000", "114345.127000", "114345.129000", "114345.132000", "114345.134000", "114345.137000", "114345.139000", "114345.142000", "114345.144000", "114345.147000", "114345.149000", "114345.152000", "114345.155000", "114345.157000", "114345.160000", "114345.162000", "114345.165000", "114345.167000", "114425.119000", "114425.122000", "114425.124000", "114425.127000", "114425.129000", "114425.132000", "114425.134000", "114425.137000", "114425.140000", "114425.142000", "114425.145000", "114425.147000", "114425.150000", "114425.152000", "114425.155000", "114425.157000", "114425.160000", "114425.162000", "114425.165000", "114425.167000", "114505.120000", "114505.122000", "114505.125000", "114505.128000", "114505.130000", "114505.133000", "114505.135000", "114505.138000", "114505.140000", "114505.143000", "114505.145000", "114505.148000", "114505.150000", "114505.153000", "114505.155000", "114505.178000", "114505.180000", "114505.183000", "114505.185000", "114505.188000", "114511.922000", "114511.925000", "114511.933000"],
