{
  "AcquisitionMatrixPE": 96,
  "AcquisitionNumber": 1,
  "AcquisitionTime": "12:45:25.032500",
  "BandwidthPerPixelPhaseEncode": 20.425,
  "BaseResolution": 96,
  "BodyPartExamined": "BRAIN",
  "CoilCombinationMethod": "Sum of Squares",
  "ConsistencyInfo": "N4_VE11C_LATEST_20160120",
  "ConversionSoftware": "dcm2niix",
  "ConversionSoftwareVersion": "v1.0.20211006",
  "DerivedVendorReportedEchoSpacing": 0.000509996,
  "DeviceSerialNumber": "166054",
  "DwellTime": 2.3e-06,
  "EchoTime": 0.03,
  "EchoTrainLength": 96,
  "EffectiveEchoSpacing": 0.000509996,
  "FlipAngle": 75,
  "HeudiconvVersion": "0.11.3+d20220512",
  "ImageComments": "Unaliased MB2/PE2",
  "ImageOrientationPatientDICOM": [0.99738, 0.0508443, -0.0514505, -0.0678197, 0.904662, -0.420698],
  "ImageOrientationText": "Tra>Cor(-25.0)>Sag(-1.4)",
  "ImageType": [
    "ORIGINAL",
    "PRIMARY",
    "M",
    "MB",
    "ND",
    "MOSAIC"
],
  "ImagingFrequency": 123.259,
  "InPlanePhaseEncodingDirectionDICOM": "COL",
  "InstitutionAddress": "Street StreetNo,City,District,IL,ZIP",
  "InstitutionName": "Weizmann Institute",
  "InstitutionalDepartmentName": "Department",
  "MRAcquisitionType": "2D",
  "MagneticFieldStrength": 3,
  "Manufacturer": "Siemens",
  "ManufacturersModelName": "Prisma",
  "MatrixCoilMode": "SENSE",
  "Modality": "MR",
  "MultibandAccelerationFactor": 2,
  "PartialFourier": 1,
  "PatientPosition": "HFS",
  "PercentPhaseFOV": 100,
  "PercentSampling": 100,
  "PhaseEncodingDirection": "j-",
  "PhaseEncodingSteps": 96,
  "PhaseResolution": 1,
  "PixelBandwidth": 2265,
  "ProcedureStepDescription": "Weizmann^Sobel",
  "ProtocolName": "EPI_PSAP_iso2.5",
  "PulseSequenceDetails": "%CustomerSeq%\\cmrr_mbep2d_bold",
  "ReceiveCoilActiveElements": "HEA;HEP",
  "ReceiveCoilName": "Head_32",
  "ReconMatrixPE": 96,
  "RepetitionTime": 2,
  "SAR": 0.10588,
  "ScanOptions": "FS",
  "ScanningSequence": "EP",
  "SequenceName": "epfid2d1_96",
  "SequenceVariant": "SK\\SS",
  "SeriesDescription": "EPI_PSAP_iso2.5",
  "SeriesNumber": 6,
  "ShimSetting": [5898, -4024, -1939, 401, 81, -15, 88, 44],
  "SliceThickness": 2.5,
  "SliceTiming": [0, 0.92, 1.8375, 0.7775, 1.6975, 0.6375, 1.555, 0.495, 1.415, 0.3525, 1.2725, 0.2125, 1.13, 0.07, 0.99, 1.91, 0.8475, 1.7675, 0.7075, 1.625, 0.565, 1.485, 0.425, 1.3425, 0.2825, 1.2025, 0.1425, 1.06, 0, 0.92, 1.8375, 0.7775, 1.6975, 0.6375, 1.555, 0.495, 1.415, 0.3525, 1.2725, 0.2125, 1.13, 0.07, 0.99, 1.91, 0.8475, 1.7675, 0.7075, 1.625, 0.565, 1.485, 0.425, 1.3425, 0.2825, 1.2025, 0.1425, 1.06],
  "SoftwareVersions": "syngo MR E11",
  "SpacingBetweenSlices": 2.5,
  "StationName": "AWP166054",
  "TaskName": "PSAP",
  "TotalReadoutTime": 0.0484496,
  "TxRefAmp": 243.5,
  "VendorReportedEchoSpacing": 0.00051,
  "WipMemBlock": "9706146a-38bf-401c-a308-9579fe64135d||Sequence: R016 ve11c/master r/e634e98; Dec 19 2017 11:00:25 by eja",
  "dcmmeta_affine": [
    [-2.4934511184692383, -0.16954919695854187, -0.06288812309503555, 126.74371337890625],
    [-0.12711067497730255, 2.261655330657959, -1.0577133893966675, -61.79848861694336],
    [-0.12862628698349, 1.0517451763153076, 2.2643513679504395, -111.28803253173828],
    [0.0, 0.0, 0.0, 1.0]
],
  "dcmmeta_reorient_transform": [
    [0.0, -1.0, 0.0, 95.0],
    [1.0, 0.0, 0.0, 0.0],
    [0.0, 0.0, 1.0, 0.0],
    [0.0, 0.0, 0.0, 1.0]
],
  "dcmmeta_shape": [96, 96, 56, 488],
  "dcmmeta_slice_dim": 2,
  "dcmmeta_version": 0.6,
  "global": {
    "const": {
      "AcquisitionMatrix": [96, 0, 0, 96],
      "AngioFlag": "N",
      "BitsAllocated": 16,
      "BitsStored": 16,
      "BodyPartExamined": "BRAIN",
      "Columns": 768,
      "EchoNumbers": 1,
      "EchoTime": 30.0,
      "EchoTrainLength": 96,
      "FlipAngle": 75.0,
      "HighBit": 15,
      "ImageOrientationPatient": [0.99738042124308, 0.05084426893469, -0.0514505163966, -0.0678196778439, 0.90466216567616, -0.4206980595288],
      "ImagePositionPatient": [-891.46756094955, -955.68417985093, 385.23255781515],
      "ImageType": [
        "ORIGINAL",
        "PRIMARY",
        "M",
        "MB",
        "ND",
        "MOSAIC"
],
      "ImagedNucleus": "1H",
      "ImagingFrequency": 123.259288,
      "InPlanePhaseEncodingDirection": "COL",
      "MRAcquisitionType": "2D",
      "MagneticFieldStrength": 3.0,
      "Manufacturer": "SIEMENS",
      "ManufacturerModelName": "Prisma",
      "Modality": "MR",
      "NumberOfAverages": 1.0,
      "NumberOfPhaseEncodingSteps": 96,
      "PercentPhaseFieldOfView": 100.0,
      "PercentSampling": 100.0,
      "PerformedProcedureStepStartTime": "123259.213000",
      "PhotometricInterpretation": "MONOCHROME2",
      "PixelBandwidth": 2265.0,
      "PixelRepresentation": 0,
      "PixelSpacing": [2.5, 2.5],
      "ProtocolName": "EPI_PSAP_iso2.5",
      "RepetitionTime": 2000.0,
      "Rows": 768,
      "SAR": 0.10587975170949,
      "SamplesPerPixel": 1,
      "ScanOptions": "FS",
      "ScanningSequence": "EP",
      "SequenceName": "epfid2d1_96",
      "SequenceVariant": [
        "SK",
        "SS"
],
      "SeriesDescription": "EPI_PSAP_iso2.5",
      "SeriesNumber": 6,
      "SeriesTime": "124609.761000",
      "SliceLocation": -77.840321987909,
      "SliceThickness": 2.5,
      "SmallestImagePixelValue": 0,
      "SoftwareVersions": "syngo MR E11",
      "SpacingBetweenSlices": 2.4999999996623,
      "SpecificCharacterSet": "ISO_IR 100",
      "StudyID": "1",
      "StudyTime": "123259.140000",
      "TransmitCoilName": "Body",
      "VariableFlipAngleFlag": "N",
      "WindowCenterWidthExplanation": "Algo1",
      "dBdt": 0.0},
    "slices": {}
  },
  "time": {
    "samples": {
      "AcquisitionNumber": [1, 2, 3, 4, 5, 6, 7, 8, 9, 10, 11, 12, 13, 14, 15, 16, 17, 18, 19, 20, 21, 22, 23, 24, 25, 26, 27, 28, 29, 30, 31, 32, 33, 34, 35, 36, 37, 38, 39, 40, 41, 42, 43, 44, 45, 46, 47, 48, 49, 50, 51, 52, 53, 54, 55, 56, 57, 58, 59, 60, 61, 62, 63, 64, 65, 66, 67, 68, 69, 70, 71, 72, 73, 74, 75, 76, 77, 78, 79, 80, 81, 82, 83, 84, 85, 86, 87, 88, 89, 90, 91, 92, 93, 94, 95, 96, 97, 98, 99, 100, 101, 102, 103, 104, 105, 106, 107, 108, 109, 110, 111, 112, 113, 114, 115, 116, 117, 118, 119, 120, 121, 122, 123, 124, 125, 126, 127, 128, 129, 130, 131, 132, 133, 134, 135, 136, 137, 138, 139, 140, 141, 142, 143, 144, 145, 146, 147, 148, 149, 150, 151, 152, 153, 154, 155, 156, 157, 158, 159, 160, 161, 162, 163, 164, 165, 166, 167, 168, 169, 170, 171, 172, 173, 174, 175, 176, 177, 178, 179, 180, 181, 182, 183, 184, 185, 186, 187, 188, 189, 190, 191, 192, 193, 194, 195, 196, 197, 198, 199, 200, 201, 202, 203, 204, 205, 206, 207, 208, 209, 210, 211, 212, 213, 214, 215, 216, 217, 218, 219, 220, 221, 222, 223, 224, 225, 226, 227, 228, 229, 230, 231, 232, 233, 234, 235, 236, 237, 238, 239, 240, 241, 242, 243, 244, 245, 246, 247, 248, 249, 250, 251, 252, 253, 254, 255, 256, 257, 258, 259, 260, 261, 262, 263, 264, 265, 266, 267, 268, 269, 270, 271, 272, 273, 274, 275, 276, 277, 278, 279, 280, 281, 282, 283, 284, 285, 286, 287, 288, 289, 290, 291, 292, 293, 294, 295, 296, 297, 298, 299, 300, 301, 302, 303, 304, 305, 306, 307, 308, 309, 310, 311, 312, 313, 314, 315, 316, 317, 318, 319, 320, 321, 322, 323, 324, 325, 326, 327, 328, 329, 330, 331, 332, 333, 334, 335, 336, 337, 338, 339, 340, 341, 342, 343, 344, 345, 346, 347, 348, 349, 350, 351, 352, 353, 354, 355, 356, 357, 358, 359, 360, 361, 362, 363, 364, 365, 366, 367, 368, 369, 370, 371, 372, 373, 374, 375, 376, 377, 378, 379, 380, 381, 382, 383, 384, 385, 386, 387, 388, 389, 390, 391, 392, 393, 394, 395, 396, 397, 398, 399, 400, 401, 402, 403, 404, 405, 406, 407, 408, 409, 410, 411, 412, 413, 414, 415, 416, 417, 418, 419, 420, 421, 422, 423, 424, 425, 426, 427, 428, 429, 430, 431, 432, 433, 434, 435, 436, 437, 438, 439, 440, 441, 442, 443, 444, 445, 446, 447, 448, 449, 450, 451, 452, 453, 454, 455, 456, 457, 458, 459, 460, 461, 462, 463, 464, 465, 466, 467, 468, 469, 470, 471, 472, 473, 474, 475, 476, 477, 478, 479, 480, 481, 482, 483, 484, 485, 486, 487, 488],
      "AcquisitionTime": ["124525.032500", "124527.032500", "124529.032500", "124531.032500", "124533.032500", "124535.032500", "124537.032500", "124539.032500", "124541.032500", "124543.032500", "124545.032500", "124547.032500", "124549.032500", "124551.032500", "124553.032500", "124555.032500", "124557.032500", "124559.032500", "124601.032500", "124603.032500", "124605.032500", "124607.032500", "124609.032500", "124611.032500", "124613.032500", "124615.032500", "124617.032500", "124619.032500", "124621.032500", "124623.032500", "124625.032500", "124627.032500", "124629.032500", "124631.032500", "124633.032500", "124635.032500", "124637.032500", "124639.032500", "124641.032500", "124643.032500", "124645.032500", "124647.032500", "124649.032500", "124651.032500", "124653.032500", "124655.032500", "124657.032500", "124659.032500", "124701.032500", "124703.032500", "124705.032500", "124707.032500", "124709.032500", "124711.032500", "124713.032500", "124715.032500", "124717.032500", "124719.032500", "124721.032500", "124723.032500", "124725.032500", "124727.032500", "124729.032500", "124731.032500", "124733.032500", "124735.032500", "124737.032500", "124739.032500", "124741.032500", "124743.032500", "124745.032500", "124747.032500", "124749.032500", "124751.032500", "124753.032500", "124755.032500", "124757.032500", "124759.032500", "124801.032500", "124803.032500", "124805.032500", "124807.032500", "124809.032500", "124811.032500", "124813.032500", "124815.032500", "124817.032500", "124819.032500", "124821.032500", "124823.032500", "124825.032500", "124827.032500", "124829.032500", "124831.032500", "124833.032500", "124835.032500", "124837.032500", "124839.032500", "124841.032500", "124843.032500", "124845.032500", "124847.032500", "124849.032500", "124851.032500", "124853.032500", "124855.032500", "124857.032500", "124859.032500", "124901.032500", "124903.032500", "124905.032500", "124907.032500", "124909.032500", "124911.032500", "124913.032500", "124915.032500", "124917.032500", "124919.032500", "124921.032500", "124923.032500", "124925.032500", "124927.032500", "124929.032500", "124931.032500", "124933.032500", "124935.032500", "124937.032500", "124939.032500", "124941.032500", "124943.032500", "124945.032500", "124947.032500", "124949.032500", "124951.032500", "124953.032500", "124955.032500", "124957.032500", "124959.032500", "125001.032500", "125003.032500", "125005.032500", "125007.032500", "125009.032500", "125011.032500", "125013.032500", "125015.032500", "125017.032500", "125019.032500", "125021.032500", "125023.032500", "125025.032500", "125027.032500", "125029.032500", "125031.032500", "125033.032500", "125035.032500", "125037.032500", "125039.032500", "125041.032500", "125043.032500", "125045.032500", "125047.032500", "125049.032500", "125051.032500", "125053.032500", "125055.032500", "125057.032500", "125059.032500", "125101.032500", "125103.032500", "125105.032500", "125107.032500", "125109.032500", "125111.032500", "125113.032500", "125115.032500", "125117.032500", "125119.032500", "125121.032500", "125123.032500", "125125.032500", "125127.032500", "125129.032500", "125131.032500", "125133.032500", "125135.032500", "125137.032500", "125139.032500", "125141.032500", "125143.032500", "125145.032500", "125147.032500", "125149.032500", "125151.032500", "125153.032500", "125155.032500", "125157.032500", "125159.032500", "125201.032500", "125203.032500", "125205.032500", "125207.032500", "125209.032500", "125211.032500", "125213.032500", "125215.032500", "125217.032500", "125219.032500", "125221.032500", "125223.032500", "125225.032500", "125227.032500", "125229.032500", "125231.032500", "125233.032500", "125235.032500", "125237.032500", "125239.032500", "125241.032500", "125243.032500", "125245.032500", "125247.032500", "125249.032500", "125251.032500", "125253.032500", "125255.032500", "125257.032500", "125259.032500", "125301.032500", "125303.032500", "125305.032500", "125307.032500", "125309.032500", "125311.032500", "125313.032500", "125315.032500", "125317.032500", "125319.032500", "125321.032500", "125323.032500", "125325.032500", "125327.032500", "125329.032500", "125331.032500", "125333.032500", "125335.032500", "125337.032500", "125339.032500", "125341.032500", "125343.032500", "125345.032500", "125347.032500", "125349.032500", "125351.032500", "125353.032500", "125355.032500", "125357.032500", "125359.032500", "125401.032500", "125403.032500", "125405.032500", "125407.032500", "125409.032500", "125411.032500", "125413.032500", "125415.032500", "125417.032500", "125419.032500", "125421.032500", "125423.032500", "125425.032500", "125427.032500", "125429.032500", "125431.032500", "125433.032500", "125435.032500", "125437.032500", "125439.032500", "125441.032500", "125443.032500", "125445.032500", "125447.032500", "125449.032500", "125451.032500", "125453.032500", "125455.032500", "125457.032500", "125459.032500", "125501.032500", "125503.032500", "125505.032500", "125507.032500", "125509.032500", "125511.032500", "125513.032500", "125515.032500", "125517.032500", "125519.032500", "125521.032500", "125523.032500", "125525.032500", "125527.032500", "125529.032500", "125531.032500", "125533.032500", "125535.032500", "125537.032500", "125539.032500", "125541.032500", "125543.032500", "125545.032500", "125547.032500", "125549.032500", "125551.032500", "125553.032500", "125555.032500", "125557.032500", "125559.032500", "125601.032500", "125603.032500", "125605.032500", "125607.032500", "125609.032500", "125611.032500", "125613.032500", "125615.032500", "125617.032500", "125619.032500", "125621.032500", "125623.032500", "125625.032500", "125627.032500", "125629.032500", "125631.032500", "125633.032500", "125635.032500", "125637.032500", "125639.032500", "125641.032500", "125643.032500", "125645.032500", "125647.032500", "125649.032500", "125651.032500", "125653.032500", "125655.032500", "125657.032500", "125659.032500", "125701.032500", "125703.032500", "125705.032500", "125707.032500", "125709.032500", "125711.032500", "125713.032500", "125715.032500", "125717.032500", "125719.032500", "125721.032500", "125723.032500", "125725.032500", "125727.032500", "125729.032500", "125731.032500", "125733.032500", "125735.032500", "125737.032500", "125739.032500", "125741.032500", "125743.032500", "125745.032500", "125747.032500", "125749.032500", "125751.032500", "125753.032500", "125755.032500", "125757.032500", "125759.032500", "125801.032500", "125803.032500", "125805.032500", "125807.032500", "125809.032500", "125811.032500", "125813.032500", "125815.032500", "125817.032500", "125819.032500", "125821.032500", "125823.032500", "125825.032500", "125827.032500", "125829.032500", "125831.032500", "125833.032500", "125835.032500", "125837.032500", "125839.032500", "125841.032500", "125843.032500", "125845.032500", "125847.032500", "125849.032500", "125851.032500", "125853.032500", "125855.032500", "125857.032500", "125859.032500", "125901.032500", "125903.032500", "125905.032500", "125907.032500", "125909.032500", "125911.032500", "125913.032500", "125915.032500", "125917.032500", "125919.032500", "125921.032500", "125923.032500", "125925.032500", "125927.032500", "125929.032500", "125931.032500", "125933.032500", "125935.032500", "125937.032500", "125939.032500", "125941.032500", "125943.032500", "125945.032500", "125947.032500", "125949.032500", "125951.032500", "125953.032500", "125955.032500", "125957.032500", "125959.032500", "130001.032500", "130003.032500", "130005.032500", "130007.032500", "130009.032500", "130011.032500", "130013.032500", "130015.032500", "130017.032500", "130019.032500", "130021.032500", "130023.032500", "130025.032500", "130027.032500", "130029.032500", "130031.032500", "130033.032500", "130035.032500", "130037.032500", "130039.032500", "130041.032500", "130043.032500", "130045.032500", "130047.032500", "130049.032500", "130051.032500", "130053.032500", "130055.032500", "130057.032500", "130059.032500", "130101.032500", "130103.032500", "130105.032500", "130107.032500", "130109.032500", "130111.032500", "130113.032500", "130115.032500", "130117.032500", "130119.032500", "130121.032500", "130123.032500", "130125.032500", "130127.032500", "130129.032500", "130131.032500", "130133.032500", "130135.032500", "130137.032500", "130139.032500"],
      "ContentTime": ["124609.766000", "124609.769000", "124609.772000", "124609.775000", "124609.778000", "124609.781000", "124609.784000", "124609.786000", "124609.790000", "124609.792000", "124609.795000", "124609.798000", "124609.801000", "124609.813000", "124609.815000", "124609.818000", "124609.820000", "124609.823000", "124609.826000", "124609.828000", "124609.831000", "124609.833000", "124649.718000", "124649.721000", "124649.724000", "124649.726000", "124649.729000", "124649.731000", "124649.734000", "124649.736000", "124649.739000", "124649.741000", "124649.744000", "124649.746000", "124649.749000", "124649.752000", "124649.754000", "124649.757000", "124649.759000", "124649.762000", "124649.764000", "124649.767000", "124729.720000", "124729.722000", "124729.725000", "124729.727000", "124729.730000", "124729.732000", "124729.735000", "124729.737000", "124729.740000", "124729.742000", "124729.745000", "124729.747000", "124729.750000", "124729.753000", "124729.755000", "124729.758000", "124729.760000", "124729.763000", "124729.765000", "124729.768000", "124829.719000", "124829.721000", "124829.724000", "124829.726000", "124829.729000", "124829.731000", "124829.734000", "124829.736000", "124829.739000", "124829.742000", "124829.744000", "124829.747000", "124829.749000", "124829.752000", "124829.754000", "124829.757000", "124829.759000", "124829.762000", "124829.764000", "124829.767000", "124829.770000", "124829.772000", "124829.775000", "124829.777000", "124829.780000", "124829.782000", "124829.785000", "124829.787000", "124829.790000", "124829.792000", "124849.718000", "124849.721000", "124849.724000", "124849.726000", "124849.729000", "124849.732000", "124849.734000", "124849.737000", "124849.739000", "124849.742000", "124929.719000", "124929.722000", "124929.725000", "124929.727000", "124929.730000", "124929.732000", "124929.735000", "124929.738000", "124929.740000", "124929.743000", "124929.745000", "124929.748000", "124929.750000", "124929.753000", "124929.756000", "124929.758000", "124929.761000", "124929.763000", "124929.766000", "124929.768000", "125009.718000", "125009.721000", "125009.724000", "125009.726000", "125009.729000", "125009.731000", "125009.734000", "125009.736000", "125009.739000", "125009.741000", "125009.744000", "125009.747000", "125009.749000", "125009.752000", "125009.754000", "125009.757000", "125009.759000", "125009.762000", "125009.764000", "125009.767000", "125049.718000", "125049.721000", "125049.724000", "125049.726000", "125049.729000", "125049.731000", "125049.734000", "125049.736000", "125049.739000", "125049.741000", "125049.744000", "125049.747000", "125049.749000", "125049.752000", "125049.754000", "125049.757000", "125049.759000", "125049.762000", "125049.764000", "125049.767000", "125129.718000", "125129.721000", "125129.724000", "125129.726000", "125129.729000", "125129.731000", "125129.734000", "125129.736000", "125129.739000", "125129.741000", "125129.744000", "125129.747000", "125129.749000", "125129.752000", "125129.754000", "125129.757000", "125129.759000", "125129.762000", "125129.771000", "125129.773000", "125209.719000", "125209.722000", "125209.725000", "125209.727000", "125209.730000", "125209.732000", "125209.735000", "125209.737000", "125209.740000", "125209.742000", "125209.762000", "125209.765000", "125209.767000", "125209.770000", "125209.772000", "125209.775000", "125209.777000", "125209.780000", "125209.782000", "125209.785000", "125249.718000", "125249.721000", "125249.724000", "125249.726000", "125249.729000", "125249.731000", "125249.734000", "125249.736000", "125249.739000", "125249.742000", "125249.744000", "125249.747000", "125249.749000", "125249.752000", "125249.754000", "125249.757000", "125249.759000", "125249.762000", "125249.765000", "125249.767000", "125329.718000", "125329.721000", "125329.724000", "125329.726000", "125329.729000", "125329.731000", "125329.734000", "125329.736000", "125329.739000", "125329.741000", "125329.744000", "125329.747000", "125329.749000", "125329.752000", "125329.755000", "125329.757000", "125329.760000", "125329.762000", "125329.765000", "125329.767000", "125409.720000", "125409.722000", "125409.725000", "125409.727000", "125409.730000", "125409.733000", "125409.735000", "125409.738000", "125409.740000", "125409.743000", "125409.745000", "125409.748000", "125409.750000", "125409.753000", "125409.756000", "125409.758000", "125409.761000", "125409.763000", "125409.766000", "125409.768000", "125449.719000", "125449.721000", "125449.724000", "125449.726000", "125449.729000", "125449.732000", "125449.734000", "125449.737000", "125449.739000", "125449.742000", "125449.744000", "125449.747000", "125449.750000", "125449.752000", "125449.755000", "125449.757000", "125449.760000", "125449.763000", "125449.765000", "125449.768000", "125529.718000", "125529.721000", "125529.724000", "125529.726000", "125529.729000", "125529.731000", "125529.734000", "125529.737000", "125529.739000", "125529.742000", "125529.744000", "125529.747000", "125529.749000", "125529.752000", "125529.755000", "125529.757000", "125529.760000", "125529.762000", "125529.765000", "125529.767000", "125609.719000", "125609.721000", "125609.724000", "125609.726000", "125609.729000", "125609.731000", "125609.734000", "125609.736000", "125609.739000", "125609.741000", "125609.744000", "125609.747000", "125609.749000", "125609.752000", "125609.754000", "125609.757000", "125609.759000", "125609.762000", "125609.765000", "125609.767000", "125649.719000", "125649.722000", "125649.725000", "125649.734000", "125649.737000", "125649.739000", "125649.742000", "125649.744000", "125649.747000", "125649.750000", "125649.752000", "125649.755000", "125649.757000", "125649.760000", "125649.763000", "125649.765000", "125649.768000", "125649.770000", "125649.773000", "125649.775000", "125729.719000", "125729.721000", "125729.724000", "125729.727000", "125729.729000", "125729.732000", "125729.734000", "125729.737000", "125729.739000", "125729.742000", "125729.744000", "125729.747000", "125729.750000", "125729.752000", "125729.755000", "125729.757000", "125729.760000", "125729.762000", "125729.765000", "125729.768000", "125809.718000", "125809.721000", "125809.724000", "125809.726000", "125809.729000", "125809.732000", "125809.734000", "125809.737000", "125809.739000", "125809.758000", "125809.760000", "125809.763000", "125809.766000", "125809.768000", "125809.771000", "125809.773000", "125809.776000", "125809.779000", "125809.781000", "125809.784000", "125829.719000", "125829.721000", "125829.724000", "125829.726000", "125829.729000", "125829.732000", "125829.734000", "125829.737000", "125829.739000", "125829.742000", "125929.719000", "125929.721000", "125929.724000", "125929.726000", "125929.729000", "125929.732000", "125929.734000", "125929.737000", "125929.739000", "125929.742000", "125929.745000", "125929.747000", "125929.750000", "125929.752000", "125929.755000", "125929.757000", "125929.760000", "125929.762000", "125929.765000", "125929.768000", "125929.770000", "125929.773000", "125929.775000", "125929.778000", "125929.781000", "125929.783000", "125929.786000", "125929.788000", "125929.791000", "125929.793000", "130009.720000", "130009.723000", "130009.726000", "130009.728000", "130009.731000", "130009.734000", "130009.736000", "130009.739000", "130009.741000", "130009.744000", "130009.747000", "130009.749000", "130009.752000", "130009.754000", "130009.757000", "130009.760000", "130009.762000", "130009.765000", "130009.767000", "130009.770000", "130049.719000", "130049.721000", "130049.724000", "130049.727000", "130049.729000", "130049.732000", "130049.734000", "130049.737000", "130049.739000", "130049.742000", "130049.744000", "130049.747000", "130049.750000", "130049.752000", "130049.755000", "130049.757000", "130049.760000", "130049.762000", "130049.765000", "130049.767000", "130129.719000", "130129.722000", "130129.725000", "130129.727000", "130129.730000", "130129.733000", "130129.735000", "130129.738000", "130129.740000", "130129.743000", "130129.745000", "130129.748000", "130129.750000", "130129.753000", "130129.755000", "130129.758000", "130129.761000", "130129.763000", "130129.766000", "130129.768000", "130141.812000", "130141.815000", "130141.818000", "130141.821000", "130141.824000", "130141.827000"],
