{
  "AcquisitionMatrixPE": 96,
  "AcquisitionNumber": 1,
  "AcquisitionTime": "15:32:14.117500",
  "BandwidthPerPixelPhaseEncode": 20.425,
  "BaseResolution": 96,
  "BodyPartExamined": "BRAIN",
  "CoilCombinationMethod": "Sum of Squares",
  "ConsistencyInfo": "N4_VE11C_LATEST_20160120",
  "ConversionSoftware": "dcm2niix",
  "ConversionSoftwareVersion": "v1.0.20211006",
  "DerivedVendorReportedEchoSpacing": 0.000509996,
  "DeviceSerialNumber": "166054",
  "DwellTime": 2.3e-06,
  "EchoTime": 0.03,
  "EchoTrainLength": 96,
  "EffectiveEchoSpacing": 0.000509996,
  "FlipAngle": 75,
  "HeudiconvVersion": "0.11.3+d20220512",
  "ImageComments": "Unaliased MB2/PE2",
  "ImageOrientationPatientDICOM": [0.998672, 0.0360171, -0.0368493, -0.0472708, 0.92501, -0.376991],
  "ImageOrientationText": "Tra>Cor(-22.2)>Sag(-1.2)",
  "ImageType": [
    "ORIGINAL",
    "PRIMARY",
    "M",
    "MB",
    "ND",
    "MOSAIC"
],
  "ImagingFrequency": 123.26,
  "InPlanePhaseEncodingDirectionDICOM": "COL",
  "InstitutionAddress": "Street StreetNo,City,District,IL,ZIP",
  "InstitutionName": "Weizmann Institute",
  "InstitutionalDepartmentName": "Department",
  "MRAcquisitionType": "2D",
  "MagneticFieldStrength": 3,
  "Manufacturer": "Siemens",
  "ManufacturersModelName": "Prisma",
  "MatrixCoilMode": "SENSE",
  "Modality": "MR",
  "MultibandAccelerationFactor": 2,
  "PartialFourier": 1,
  "PatientPosition": "HFS",
  "PercentPhaseFOV": 100,
  "PercentSampling": 100,
  "PhaseEncodingDirection": "j-",
  "PhaseEncodingSteps": 96,
  "PhaseResolution": 1,
  "PixelBandwidth": 2265,
  "ProcedureStepDescription": "Weizmann^Sobel",
  "ProtocolName": "EPI_PSAP_iso2.5",
  "PulseSequenceDetails": "%CustomerSeq%\\cmrr_mbep2d_bold",
  "ReceiveCoilActiveElements": "HEA;HEP",
  "ReceiveCoilName": "Head_32",
  "ReconMatrixPE": 96,
  "RepetitionTime": 2,
  "SAR": 0.100566,
  "ScanOptions": "FS",
  "ScanningSequence": "EP",
  "SequenceName": "epfid2d1_96",
  "SequenceVariant": "SK\\SS",
  "SeriesDescription": "EPI_PSAP_iso2.5",
  "SeriesNumber": 6,
  "ShimSetting": [5888, -4083, -1940, 562, 23, 38, -103, 15],
  "SliceThickness": 2.5,
  "SliceTiming": [0, 0.92, 1.8375, 0.7775, 1.6975, 0.635, 1.555, 0.495, 1.415, 0.3525, 1.2725, 0.2125, 1.13, 0.07, 0.99, 1.9075, 0.8475, 1.7675, 0.7075, 1.625, 0.565, 1.485, 0.425, 1.3425, 0.2825, 1.2025, 0.14, 1.06, 0, 0.92, 1.8375, 0.7775, 1.6975, 0.635, 1.555, 0.495, 1.415, 0.3525, 1.2725, 0.2125, 1.13, 0.07, 0.99, 1.9075, 0.8475, 1.7675, 0.7075, 1.625, 0.565, 1.485, 0.425, 1.3425, 0.2825, 1.2025, 0.14, 1.06],
  "SoftwareVersions": "syngo MR E11",
  "SpacingBetweenSlices": 2.5,
  "StationName": "AWP166054",
  "TaskName": "PSAP",
  "TotalReadoutTime": 0.0484496,
  "TxRefAmp": 253,
  "VendorReportedEchoSpacing": 0.00051,
  "WipMemBlock": "60c7e3a5-1269-4373-87b3-e37be9325d8c||Sequence: R016 ve11c/master r/e634e98; Dec 19 2017 11:00:25 by eja",
  "dcmmeta_affine": [
    [-2.4966788291931152, -0.11817710101604462, -0.05126966908574104, 126.29668426513672],
    [-0.09004279226064682, 2.3125250339508057, -0.9455795288085938, -71.9365005493164],
    [-0.09212329238653183, 0.9424768090248108, 2.313709259033203, -115.51425170898438],
    [0.0, 0.0, 0.0, 1.0]
],
  "dcmmeta_reorient_transform": [
    [0.0, -1.0, 0.0, 95.0],
    [1.0, 0.0, 0.0, 0.0],
    [0.0, 0.0, 1.0, 0.0],
    [0.0, 0.0, 0.0, 1.0]
],
  "dcmmeta_shape": [96, 96, 56, 493],
  "dcmmeta_slice_dim": 2,
  "dcmmeta_version": 0.6,
  "global": {
    "const": {
      "AcquisitionMatrix": [96, 0, 0, 96],
      "AngioFlag": "N",
      "BitsAllocated": 16,
      "BitsStored": 16,
      "BodyPartExamined": "BRAIN",
      "Columns": 768,
      "EchoNumbers": 1,
      "EchoTime": 30.0,
      "EchoTrainLength": 96,
      "FlipAngle": 75.0,
      "HighBit": 15,
      "ImageOrientationPatient": [0.99867156514335, 0.03601711719329, -0.0368493180835, -0.0472708401637, 0.92500997920833, -0.3769907240705],
      "ImagePositionPatient": [-914.24646746629, -955.01613110634, 321.64667758943],
      "ImageType": [
        "ORIGINAL",
        "PRIMARY",
        "M",
        "MB",
        "ND",
        "MOSAIC"
],
      "ImagedNucleus": "1H",
      "ImagingFrequency": 123.25993,
      "InPlanePhaseEncodingDirection": "COL",
      "MRAcquisitionType": "2D",
      "MagneticFieldStrength": 3.0,
      "Manufacturer": "SIEMENS",
      "ManufacturerModelName": "Prisma",
      "Modality": "MR",
      "NumberOfAverages": 1.0,
      "NumberOfPhaseEncodingSteps": 96,
      "PercentPhaseFieldOfView": 100.0,
      "PercentSampling": 100.0,
      "PerformedProcedureStepStartTime": "144040.163000",
      "PhotometricInterpretation": "MONOCHROME2",
      "PixelBandwidth": 2265.0,
      "PixelRepresentation": 0,
      "PixelSpacing": [2.5, 2.5],
      "ProtocolName": "EPI_PSAP_iso2.5",
      "RepetitionTime": 2000.0,
      "Rows": 768,
      "SAR": 0.10056614813005,
      "SamplesPerPixel": 1,
      "ScanOptions": "FS",
      "ScanningSequence": "EP",
      "SequenceName": "epfid2d1_96",
      "SequenceVariant": [
        "SK",
        "SS"
],
      "SeriesDescription": "EPI_PSAP_iso2.5",
      "SeriesNumber": 6,
      "SeriesTime": "153255.220000",
      "SliceLocation": -82.287965366982,
      "SliceThickness": 2.5,
      "SmallestImagePixelValue": 0,
      "SoftwareVersions": "syngo MR E11",
      "SpacingBetweenSlices": 2.5000000298459,
      "SpecificCharacterSet": "ISO_IR 100",
      "StudyID": "1",
      "StudyTime": "144040.097000",
      "TransmitCoilName": "Body",
      "VariableFlipAngleFlag": "N",
      "WindowCenterWidthExplanation": "Algo1",
      "dBdt": 0.0},
    "slices": {}
  },
  "time": {
    "samples": {
      "AcquisitionNumber": [1, 2, 3, 4, 5, 6, 7, 8, 9, 10, 11, 12, 13, 14, 15, 16, 17, 18, 19, 20, 21, 22, 23, 24, 25, 26, 27, 28, 29, 30, 31, 32, 33, 34, 35, 36, 37, 38, 39, 40, 41, 42, 43, 44, 45, 46, 47, 48, 49, 50, 51, 52, 53, 54, 55, 56, 57, 58, 59, 60, 61, 62, 63, 64, 65, 66, 67, 68, 69, 70, 71, 72, 73, 74, 75, 76, 77, 78, 79, 80, 81, 82, 83, 84, 85, 86, 87, 88, 89, 90, 91, 92, 93, 94, 95, 96, 97, 98, 99, 100, 101, 102, 103, 104, 105, 106, 107, 108, 109, 110, 111, 112, 113, 114, 115, 116, 117, 118, 119, 120, 121, 122, 123, 124, 125, 126, 127, 128, 129, 130, 131, 132, 133, 134, 135, 136, 137, 138, 139, 140, 141, 142, 143, 144, 145, 146, 147, 148, 149, 150, 151, 152, 153, 154, 155, 156, 157, 158, 159, 160, 161, 162, 163, 164, 165, 166, 167, 168, 169, 170, 171, 172, 173, 174, 175, 176, 177, 178, 179, 180, 181, 182, 183, 184, 185, 186, 187, 188, 189, 190, 191, 192, 193, 194, 195, 196, 197, 198, 199, 200, 201, 202, 203, 204, 205, 206, 207, 208, 209, 210, 211, 212, 213, 214, 215, 216, 217, 218, 219, 220, 221, 222, 223, 224, 225, 226, 227, 228, 229, 230, 231, 232, 233, 234, 235, 236, 237, 238, 239, 240, 241, 242, 243, 244, 245, 246, 247, 248, 249, 250, 251, 252, 253, 254, 255, 256, 257, 258, 259, 260, 261, 262, 263, 264, 265, 266, 267, 268, 269, 270, 271, 272, 273, 274, 275, 276, 277, 278, 279, 280, 281, 282, 283, 284, 285, 286, 287, 288, 289, 290, 291, 292, 293, 294, 295, 296, 297, 298, 299, 300, 301, 302, 303, 304, 305, 306, 307, 308, 309, 310, 311, 312, 313, 314, 315, 316, 317, 318, 319, 320, 321, 322, 323, 324, 325, 326, 327, 328, 329, 330, 331, 332, 333, 334, 335, 336, 337, 338, 339, 340, 341, 342, 343, 344, 345, 346, 347, 348, 349, 350, 351, 352, 353, 354, 355, 356, 357, 358, 359, 360, 361, 362, 363, 364, 365, 366, 367, 368, 369, 370, 371, 372, 373, 374, 375, 376, 377, 378, 379, 380, 381, 382, 383, 384, 385, 386, 387, 388, 389, 390, 391, 392, 393, 394, 395, 396, 397, 398, 399, 400, 401, 402, 403, 404, 405, 406, 407, 408, 409, 410, 411, 412, 413, 414, 415, 416, 417, 418, 419, 420, 421, 422, 423, 424, 425, 426, 427, 428, 429, 430, 431, 432, 433, 434, 435, 436, 437, 438, 439, 440, 441, 442, 443, 444, 445, 446, 447, 448, 449, 450, 451, 452, 453, 454, 455, 456, 457, 458, 459, 460, 461, 462, 463, 464, 465, 466, 467, 468, 469, 470, 471, 472, 473, 474, 475, 476, 477, 478, 479, 480, 481, 482, 483, 484, 485, 486, 487, 488, 489, 490, 491, 492, 493],
      "AcquisitionTime": ["153214.117500", "153216.117500", "153218.117500", "153220.117500", "153222.117500", "153224.117500", "153226.117500", "153228.117500", "153230.117500", "153232.117500", "153234.117500", "153236.117500", "153238.117500", "153240.117500", "153242.117500", "153244.117500", "153246.117500", "153248.117500", "153250.117500", "153252.117500", "153254.117500", "153256.117500", "153258.117500", "153300.117500", "153302.117500", "153304.117500", "153306.117500", "153308.117500", "153310.117500", "153312.117500", "153314.117500", "153316.117500", "153318.117500", "153320.117500", "153322.117500", "153324.117500", "153326.117500", "153328.117500", "153330.117500", "153332.117500", "153334.117500", "153336.117500", "153338.117500", "153340.117500", "153342.117500", "153344.117500", "153346.117500", "153348.117500", "153350.117500", "153352.117500", "153354.117500", "153356.117500", "153358.117500", "153400.117500", "153402.117500", "153404.117500", "153406.117500", "153408.117500", "153410.117500", "153412.117500", "153414.117500", "153416.117500", "153418.117500", "153420.117500", "153422.117500", "153424.117500", "153426.117500", "153428.117500", "153430.117500", "153432.117500", "153434.117500", "153436.117500", "153438.117500", "153440.117500", "153442.117500", "153444.117500", "153446.117500", "153448.117500", "153450.117500", "153452.117500", "153454.117500", "153456.117500", "153458.117500", "153500.117500", "153502.117500", "153504.117500", "153506.117500", "153508.117500", "153510.117500", "153512.117500", "153514.117500", "153516.117500", "153518.117500", "153520.117500", "153522.117500", "153524.117500", "153526.117500", "153528.117500", "153530.117500", "153532.117500", "153534.117500", "153536.117500", "153538.117500", "153540.117500", "153542.117500", "153544.117500", "153546.117500", "153548.117500", "153550.117500", "153552.117500", "153554.117500", "153556.117500", "153558.117500", "153600.117500", "153602.117500", "153604.117500", "153606.117500", "153608.117500", "153610.117500", "153612.117500", "153614.117500", "153616.117500", "153618.117500", "153620.117500", "153622.117500", "153624.117500", "153626.117500", "153628.117500", "153630.117500", "153632.117500", "153634.117500", "153636.117500", "153638.117500", "153640.117500", "153642.117500", "153644.117500", "153646.117500", "153648.117500", "153650.117500", "153652.117500", "153654.117500", "153656.117500", "153658.117500", "153700.117500", "153702.117500", "153704.117500", "153706.117500", "153708.117500", "153710.117500", "153712.117500", "153714.117500", "153716.117500", "153718.117500", "153720.117500", "153722.117500", "153724.117500", "153726.117500", "153728.117500", "153730.117500", "153732.117500", "153734.117500", "153736.117500", "153738.117500", "153740.117500", "153742.117500", "153744.117500", "153746.117500", "153748.117500", "153750.117500", "153752.117500", "153754.117500", "153756.117500", "153758.117500", "153800.117500", "153802.117500", "153804.117500", "153806.117500", "153808.117500", "153810.117500", "153812.117500", "153814.117500", "153816.117500", "153818.117500", "153820.117500", "153822.117500", "153824.117500", "153826.117500", "153828.117500", "153830.117500", "153832.117500", "153834.117500", "153836.117500", "153838.117500", "153840.117500", "153842.117500", "153844.117500", "153846.117500", "153848.117500", "153850.117500", "153852.117500", "153854.117500", "153856.117500", "153858.117500", "153900.117500", "153902.117500", "153904.117500", "153906.117500", "153908.117500", "153910.117500", "153912.117500", "153914.117500", "153916.117500", "153918.117500", "153920.117500", "153922.117500", "153924.117500", "153926.117500", "153928.117500", "153930.117500", "153932.117500", "153934.117500", "153936.117500", "153938.117500", "153940.117500", "153942.117500", "153944.117500", "153946.117500", "153948.117500", "153950.117500", "153952.117500", "153954.117500", "153956.117500", "153958.117500", "154000.117500", "154002.117500", "154004.117500", "154006.117500", "154008.117500", "154010.117500", "154012.117500", "154014.117500", "154016.117500", "154018.117500", "154020.117500", "154022.117500", "154024.117500", "154026.117500", "154028.117500", "154030.117500", "154032.117500", "154034.117500", "154036.117500", "154038.117500", "154040.117500", "154042.117500", "154044.117500", "154046.117500", "154048.117500", "154050.117500", "154052.117500", "154054.117500", "154056.117500", "154058.117500", "154100.117500", "154102.117500", "154104.117500", "154106.117500", "154108.117500", "154110.117500", "154112.117500", "154114.117500", "154116.117500", "154118.117500", "154120.117500", "154122.117500", "154124.117500", "154126.117500", "154128.117500", "154130.117500", "154132.117500", "154134.117500", "154136.117500", "154138.117500", "154140.117500", "154142.117500", "154144.117500", "154146.117500", "154148.117500", "154150.117500", "154152.117500", "154154.117500", "154156.117500", "154158.117500", "154200.117500", "154202.117500", "154204.117500", "154206.117500", "154208.117500", "154210.117500", "154212.117500", "154214.117500", "154216.117500", "154218.117500", "154220.117500", "154222.117500", "154224.117500", "154226.117500", "154228.117500", "154230.117500", "154232.117500", "154234.117500", "154236.117500", "154238.117500", "154240.117500", "154242.117500", "154244.117500", "154246.117500", "154248.117500", "154250.117500", "154252.117500", "154254.117500", "154256.117500", "154258.117500", "154300.117500", "154302.117500", "154304.117500", "154306.117500", "154308.117500", "154310.117500", "154312.117500", "154314.117500", "154316.117500", "154318.117500", "154320.117500", "154322.117500", "154324.117500", "154326.117500", "154328.117500", "154330.117500", "154332.117500", "154334.117500", "154336.117500", "154338.117500", "154340.117500", "154342.117500", "154344.117500", "154346.117500", "154348.117500", "154350.117500", "154352.117500", "154354.117500", "154356.117500", "154358.117500", "154400.117500", "154402.117500", "154404.117500", "154406.117500", "154408.117500", "154410.117500", "154412.117500", "154414.117500", "154416.117500", "154418.117500", "154420.117500", "154422.117500", "154424.117500", "154426.117500", "154428.117500", "154430.117500", "154432.117500", "154434.117500", "154436.117500", "154438.117500", "154440.117500", "154442.117500", "154444.117500", "154446.117500", "154448.117500", "154450.117500", "154452.117500", "154454.117500", "154456.117500", "154458.117500", "154500.117500", "154502.117500", "154504.117500", "154506.117500", "154508.117500", "154510.117500", "154512.117500", "154514.117500", "154516.117500", "154518.117500", "154520.117500", "154522.117500", "154524.117500", "154526.117500", "154528.117500", "154530.117500", "154532.117500", "154534.117500", "154536.117500", "154538.117500", "154540.117500", "154542.117500", "154544.117500", "154546.117500", "154548.117500", "154550.117500", "154552.117500", "154554.117500", "154556.117500", "154558.117500", "154600.117500", "154602.117500", "154604.117500", "154606.117500", "154608.117500", "154610.117500", "154612.117500", "154614.117500", "154616.117500", "154618.117500", "154620.117500", "154622.117500", "154624.117500", "154626.117500", "154628.117500", "154630.117500", "154632.117500", "154634.117500", "154636.117500", "154638.117500", "154640.117500", "154642.117500", "154644.117500", "154646.117500", "154648.117500", "154650.117500", "154652.117500", "154654.117500", "154656.117500", "154658.117500", "154700.117500", "154702.117500", "154704.117500", "154706.117500", "154708.117500", "154710.117500", "154712.117500", "154714.117500", "154716.117500", "154718.117500", "154720.117500", "154722.117500", "154724.117500", "154726.117500", "154728.117500", "154730.117500", "154732.117500", "154734.117500", "154736.117500", "154738.117500", "154740.117500", "154742.117500", "154744.117500", "154746.117500", "154748.117500", "154750.117500", "154752.117500", "154754.117500", "154756.117500", "154758.117500", "154800.117500", "154802.117500", "154804.117500", "154806.117500", "154808.117500", "154810.117500", "154812.117500", "154814.117500", "154816.117500", "154818.117500", "154820.117500", "154822.117500", "154824.117500", "154826.117500", "154828.117500", "154830.117500", "154832.117500", "154834.117500", "154836.117500", "154838.117500"],
      "ContentTime": ["153255.223000", "153255.226000", "153255.229000", "153255.231000", "153255.234000", "153255.236000", "153255.239000", "153255.241000", "153255.249000", "153255.252000", "153255.254000", "153255.257000", "153255.260000", "153255.262000", "153255.265000", "153255.267000", "153255.275000", "153255.277000", "153255.280000", "153255.282000", "153335.179000", "153335.181000", "153335.184000", "153335.186000", "153335.189000", "153335.192000", "153335.194000", "153335.197000", "153335.199000", "153335.202000", "153335.204000", "153335.207000", "153335.210000", "153335.212000", "153335.215000", "153335.217000", "153335.220000", "153335.222000", "153335.225000", "153335.227000", "153415.180000", "153415.182000", "153415.185000", "153415.187000", "153415.190000", "153415.193000", "153415.195000", "153415.198000", "153415.200000", "153415.203000", "153415.205000", "153415.208000", "153415.210000", "153415.213000", "153415.215000", "153415.218000", "153415.220000", "153415.223000", "153415.225000", "153415.228000", "153455.179000", "153455.182000", "153455.185000", "153455.187000", "153455.190000", "153455.192000", "153455.195000", "153455.198000", "153455.200000", "153455.203000", "153455.205000", "153455.208000", "153455.210000", "153455.213000", "153455.221000", "153455.224000", "153455.226000", "153455.229000", "153455.232000", "153455.234000", "153535.179000", "153535.181000", "153535.184000", "153535.186000", "153535.189000", "153535.192000", "153535.194000", "153535.197000", "153535.199000", "153535.202000", "153535.204000", "153535.207000", "153535.209000", "153535.212000", "153535.214000", "153535.217000", "153535.220000", "153535.222000", "153535.225000", "153535.227000", "153615.180000", "153615.182000", "153615.185000", "153615.187000", "153615.190000", "153615.193000", "153615.195000", "153615.198000", "153615.200000", "153615.203000", "153615.205000", "153615.208000", "153615.210000", "153615.213000", "153615.221000", "153615.224000", "153615.227000", "153615.229000", "153615.232000", "153615.234000", "153655.179000", "153655.182000", "153655.185000", "153655.187000", "153655.190000", "153655.193000", "153655.195000", "153655.198000", "153655.200000", "153655.203000", "153655.205000", "153655.208000", "153655.210000", "153655.213000", "153655.216000", "153655.218000", "153655.221000", "153655.223000", "153655.226000", "153655.229000", "153735.178000", "153735.181000", "153735.184000", "153735.186000", "153735.189000", "153735.192000", "153735.194000", "153735.197000", "153735.200000", "153735.202000", "153735.205000", "153735.208000", "153735.210000", "153735.213000", "153735.215000", "153735.218000", "153735.220000", "153735.223000", "153735.225000", "153735.228000", "153815.179000", "153815.182000", "153815.184000", "153815.187000", "153815.189000", "153815.199000", "153815.202000", "153815.204000", "153815.207000", "153815.209000", "153815.212000", "153815.215000", "153815.217000", "153815.220000", "153815.222000", "153815.225000", "153815.227000", "153815.230000", "153815.233000", "153815.235000", "153855.179000", "153855.182000", "153855.185000", "153855.187000", "153855.190000", "153855.192000", "153855.195000", "153855.197000", "153855.200000", "153855.202000", "153855.205000", "153855.207000", "153855.210000", "153855.213000", "153855.215000", "153855.218000", "153855.220000", "153855.223000", "153855.225000", "153855.228000", "153935.180000", "153935.182000", "153935.185000", "153935.188000", "153935.190000", "153935.193000", "153935.195000", "153935.198000", "153935.200000", "153935.203000", "153935.206000", "153935.208000", "153935.211000", "153935.213000", "153935.216000", "153935.218000", "153935.221000", "153935.223000", "153935.226000", "153935.242000", "154015.179000", "154015.181000", "154015.184000", "154015.186000", "154015.189000", "154015.192000", "154015.194000", "154015.197000", "154015.199000", "154015.202000", "154015.204000", "154015.207000", "154015.210000", "154015.212000", "154015.215000", "154015.218000", "154015.220000", "154015.223000", "154015.225000", "154015.228000", "154055.179000", "154055.182000", "154055.185000", "154055.187000", "154055.190000", "154055.193000", "154055.195000", "154055.198000", "154055.201000", "154055.203000", "154055.206000", "154055.208000", "154055.211000", "154055.213000", "154055.216000", "154055.219000", "154055.221000", "154055.224000", "154055.226000", "154055.229000", "154135.179000", "154135.182000", "154135.185000", "154135.187000", "154135.190000", "154135.193000", "154135.195000", "154135.198000", "154135.200000", "154135.203000", "154135.205000", "154135.208000", "154135.210000", "154135.213000", "154135.215000", "154135.218000", "154135.220000", "154135.223000", "154135.226000", "154135.228000", "154215.179000", "154215.181000", "154215.184000", "154215.186000", "154215.189000", "154215.192000", "154215.194000", "154215.197000", "154215.199000", "154215.202000", "154215.204000", "154215.207000", "154215.209000", "154215.212000", "154215.214000", "154215.217000", "154215.219000", "154215.222000", "154215.225000", "154215.227000", "154255.179000", "154255.181000", "154255.184000", "154255.186000", "154255.189000", "154255.192000", "154255.194000", "154255.197000", "154255.199000", "154255.202000", "154255.204000", "154255.207000", "154255.210000", "154255.212000", "154255.215000", "154255.217000", "154255.220000", "154255.222000", "154255.225000", "154255.227000", "154335.179000", "154335.182000", "154335.185000", "154335.187000", "154335.190000", "154335.192000", "154335.195000", "154335.198000", "154335.200000", "154335.203000", "154335.205000", "154335.208000", "154335.210000", "154335.213000", "154335.216000", "154335.218000", "154335.221000", "154335.223000", "154335.226000", "154335.228000", "154415.179000", "154415.182000", "154415.185000", "154415.187000", "154415.190000", "154415.193000", "154415.195000", "154415.198000", "154415.200000", "154415.203000", "154415.205000", "154415.208000", "154415.210000", "154415.213000", "154415.215000", "154415.218000", "154415.220000", "154415.223000", "154415.225000", "154415.228000", "154455.178000", "154455.181000", "154455.184000", "154455.186000", "154455.189000", "154455.192000", "154455.194000", "154455.197000", "154455.199000", "154455.202000", "154455.204000", "154455.207000", "154455.209000", "154455.212000", "154455.214000", "154455.217000", "154455.219000", "154455.222000", "154455.225000", "154455.227000", "154535.179000", "154535.182000", "154535.185000", "154535.187000", "154535.190000", "154535.193000", "154535.195000", "154535.198000", "154535.200000", "154535.203000", "154535.205000", "154535.208000", "154535.210000", "154535.213000", "154535.215000", "154535.218000", "154535.220000", "154535.223000", "154535.226000", "154535.228000", "154615.179000", "154615.182000", "154615.185000", "154615.188000", "154615.190000", "154615.193000", "154615.195000", "154615.198000", "154615.201000", "154615.203000", "154615.206000", "154615.208000", "154615.211000", "154615.213000", "154615.216000", "154615.219000", "154615.221000", "154615.224000", "154615.226000", "154615.229000", "154655.179000", "154655.181000", "154655.184000", "154655.186000", "154655.189000", "154655.326000", "154655.328000", "154655.331000", "154655.334000", "154655.336000", "154655.339000", "154655.341000", "154655.344000", "154655.347000", "154655.349000", "154655.352000", "154655.354000", "154655.357000", "154655.359000", "154655.362000", "154735.179000", "154735.181000", "154735.184000", "154735.187000", "154735.189000", "154735.192000", "154735.194000", "154735.197000", "154735.199000", "154735.202000", "154735.205000", "154735.208000", "154735.210000", "154735.213000", "154735.215000", "154735.218000", "154735.221000", "154735.223000", "154735.226000", "154735.228000", "154815.180000", "154815.182000", "154815.185000", "154815.188000", "154815.190000", "154815.193000", "154815.195000", "154815.198000", "154815.201000", "154815.203000", "154815.206000", "154815.208000", "154815.211000", "154815.213000", "154815.216000", "154815.218000", "154815.221000", "154815.224000", "154815.226000", "154815.229000", "154842.214000", "154842.217000", "154842.220000", "154842.222000", "154842.225000", "154842.228000", "154842.230000", "154842.233000", "154842.235000", "154842.238000", "154842.241000", "154842.243000", "154842.246000"],
