{
  "AcquisitionMatrixPE": 96,
  "AcquisitionNumber": 1,
  "AcquisitionTime": "15:19:7.430000",
  "BandwidthPerPixelPhaseEncode": 20.425,
  "BaseResolution": 96,
  "BodyPartExamined": "BRAIN",
  "CoilCombinationMethod": "Sum of Squares",
  "ConsistencyInfo": "N4_VE11C_LATEST_20160120",
  "ConversionSoftware": "dcm2niix",
  "ConversionSoftwareVersion": "v1.0.20211006",
  "DerivedVendorReportedEchoSpacing": 0.000509996,
  "DeviceSerialNumber": "166054",
  "DwellTime": 2.3e-06,
  "EchoTime": 0.03,
  "EchoTrainLength": 96,
  "EffectiveEchoSpacing": 0.000509996,
  "FlipAngle": 75,
  "HeudiconvVersion": "0.11.3+d20220512",
  "ImageComments": "Unaliased MB2/PE2",
  "ImageOrientationPatientDICOM": [0.999272, 0.0203844, 0.0322504, -0.00156963, 0.866553, -0.499083],
  "ImageOrientationText": "Tra>Cor(-29.9)>Sag(2.2)",
  "ImageType": [
    "ORIGINAL",
    "PRIMARY",
    "M",
    "MB",
    "ND",
    "MOSAIC"
],
  "ImagingFrequency": 123.26,
  "InPlanePhaseEncodingDirectionDICOM": "COL",
  "InstitutionAddress": "Street StreetNo,City,District,IL,ZIP",
  "InstitutionName": "Weizmann Institute",
  "InstitutionalDepartmentName": "Department",
  "MRAcquisitionType": "2D",
  "MagneticFieldStrength": 3,
  "Manufacturer": "Siemens",
  "ManufacturersModelName": "Prisma",
  "MatrixCoilMode": "SENSE",
  "Modality": "MR",
  "MultibandAccelerationFactor": 2,
  "PartialFourier": 1,
  "PatientPosition": "HFS",
  "PercentPhaseFOV": 100,
  "PercentSampling": 100,
  "PhaseEncodingDirection": "j-",
  "PhaseEncodingSteps": 96,
  "PhaseResolution": 1,
  "PixelBandwidth": 2265,
  "ProcedureStepDescription": "Weizmann^Sobel",
  "ProtocolName": "EPI_PSAP_iso2.5",
  "PulseSequenceDetails": "%CustomerSeq%\\cmrr_mbep2d_bold",
  "ReceiveCoilActiveElements": "HEA;HEP",
  "ReceiveCoilName": "Head_32",
  "ReconMatrixPE": 96,
  "RepetitionTime": 2,
  "SAR": 0.093325,
  "ScanOptions": "FS",
  "ScanningSequence": "EP",
  "SequenceName": "epfid2d1_96",
  "SequenceVariant": "SK\\SS",
  "SeriesDescription": "EPI_PSAP_iso2.5",
  "SeriesNumber": 16,
  "ShimSetting": [5909, -4072, -1912, 534, 46, -48, 218, -10],
  "SliceThickness": 2.5,
  "SliceTiming": [0, 0.92, 1.8375, 0.7775, 1.6975, 0.6375, 1.555, 0.495, 1.415, 0.355, 1.2725, 0.2125, 1.1325, 0.07, 0.99, 1.91, 0.85, 1.7675, 0.7075, 1.6275, 0.565, 1.485, 0.425, 1.345, 0.2825, 1.2025, 0.1425, 1.06, 0, 0.92, 1.8375, 0.7775, 1.6975, 0.6375, 1.555, 0.495, 1.415, 0.355, 1.2725, 0.2125, 1.1325, 0.07, 0.99, 1.91, 0.85, 1.7675, 0.7075, 1.6275, 0.565, 1.485, 0.425, 1.345, 0.2825, 1.2025, 0.1425, 1.06],
  "SoftwareVersions": "syngo MR E11",
  "SpacingBetweenSlices": 2.5,
  "StationName": "AWP166054",
  "TaskName": "PSAP",
  "TotalReadoutTime": 0.0484496,
  "TxRefAmp": 243.6,
  "VendorReportedEchoSpacing": 0.00051,
  "WipMemBlock": "d6af198b-9869-43b1-91c3-f43f8579db96||Sequence: R016 ve11c/master r/e634e98; Dec 19 2017 11:00:25 by eja",
  "dcmmeta_affine": [
    [-2.4981799125671387, -0.0039240638725459576, 0.09530051797628403, 121.04557800292969],
    [-0.050960950553417206, 2.166381597518921, -1.2466732263565063, -64.32780456542969],
    [0.08062610775232315, 1.2477082014083862, 2.164884328842163, -122.68294525146484],
    [0.0, 0.0, 0.0, 1.0]
],
  "dcmmeta_reorient_transform": [
    [0.0, -1.0, 0.0, 95.0],
    [1.0, 0.0, 0.0, 0.0],
    [0.0, 0.0, 1.0, 0.0],
    [0.0, 0.0, 0.0, 1.0]
],
  "dcmmeta_shape": [96, 96, 56, 490],
  "dcmmeta_slice_dim": 2,
  "dcmmeta_version": 0.6,
  "global": {
    "const": {
      "AcquisitionMatrix": [96, 0, 0, 96],
      "AngioFlag": "N",
      "BitsAllocated": 16,
      "BitsStored": 16,
      "BodyPartExamined": "BRAIN",
      "Columns": 768,
      "EchoNumbers": 1,
      "EchoTime": 30.0,
      "EchoTrainLength": 96,
      "FlipAngle": 75.0,
      "HighBit": 15,
      "ImageOrientationPatient": [0.99927192797068, 0.02038438082152, 0.03225044167576, -0.0015696256388, 0.8665526142437, -0.4990832626153],
      "ImagePositionPatient": [-958.74272320998, -886.50552051163, 387.98889958149],
      "ImageType": [
        "ORIGINAL",
        "PRIMARY",
        "M",
        "MB",
        "ND",
        "MOSAIC"
],
      "ImagedNucleus": "1H",
      "ImagingFrequency": 123.260281,
      "InPlanePhaseEncodingDirection": "COL",
      "MRAcquisitionType": "2D",
      "MagneticFieldStrength": 3.0,
      "Manufacturer": "SIEMENS",
      "ManufacturerModelName": "Prisma",
      "Modality": "MR",
      "NumberOfAverages": 1.0,
      "NumberOfPhaseEncodingSteps": 96,
      "PercentPhaseFieldOfView": 100.0,
      "PercentSampling": 100.0,
      "PerformedProcedureStepStartTime": "145046.518000",
      "PhotometricInterpretation": "MONOCHROME2",
      "PixelBandwidth": 2265.0,
      "PixelRepresentation": 0,
      "PixelSpacing": [2.5, 2.5],
      "ProtocolName": "EPI_PSAP_iso2.5",
      "RepetitionTime": 2000.0,
      "Rows": 768,
      "SAR": 0.09332502974746,
      "SamplesPerPixel": 1,
      "ScanOptions": "FS",
      "ScanningSequence": "EP",
      "SequenceName": "epfid2d1_96",
      "SequenceVariant": [
        "SK",
        "SS"
],
      "SeriesDescription": "EPI_PSAP_iso2.5",
      "SeriesNumber": 16,
      "SeriesTime": "151959.574000",
      "SliceLocation": -69.545169366423,
      "SliceThickness": 2.5,
      "SmallestImagePixelValue": 0,
      "SoftwareVersions": "syngo MR E11",
      "SpacingBetweenSlices": 2.5000000042429,
      "SpecificCharacterSet": "ISO_IR 100",
      "StudyID": "1",
      "StudyTime": "145046.397000",
      "TransmitCoilName": "Body",
      "VariableFlipAngleFlag": "N",
      "WindowCenterWidthExplanation": "Algo1",
      "dBdt": 0.0},
    "slices": {}
  },
  "time": {
    "samples": {
      "AcquisitionNumber": [1, 2, 3, 4, 5, 6, 7, 8, 9, 10, 11, 12, 13, 14, 15, 16, 17, 18, 19, 20, 21, 22, 23, 24, 25, 26, 27, 28, 29, 30, 31, 32, 33, 34, 35, 36, 37, 38, 39, 40, 41, 42, 43, 44, 45, 46, 47, 48, 49, 50, 51, 52, 53, 54, 55, 56, 57, 58, 59, 60, 61, 62, 63, 64, 65, 66, 67, 68, 69, 70, 71, 72, 73, 74, 75, 76, 77, 78, 79, 80, 81, 82, 83, 84, 85, 86, 87, 88, 89, 90, 91, 92, 93, 94, 95, 96, 97, 98, 99, 100, 101, 102, 103, 104, 105, 106, 107, 108, 109, 110, 111, 112, 113, 114, 115, 116, 117, 118, 119, 120, 121, 122, 123, 124, 125, 126, 127, 128, 129, 130, 131, 132, 133, 134, 135, 136, 137, 138, 139, 140, 141, 142, 143, 144, 145, 146, 147, 148, 149, 150, 151, 152, 153, 154, 155, 156, 157, 158, 159, 160, 161, 162, 163, 164, 165, 166, 167, 168, 169, 170, 171, 172, 173, 174, 175, 176, 177, 178, 179, 180, 181, 182, 183, 184, 185, 186, 187, 188, 189, 190, 191, 192, 193, 194, 195, 196, 197, 198, 199, 200, 201, 202, 203, 204, 205, 206, 207, 208, 209, 210, 211, 212, 213, 214, 215, 216, 217, 218, 219, 220, 221, 222, 223, 224, 225, 226, 227, 228, 229, 230, 231, 232, 233, 234, 235, 236, 237, 238, 239, 240, 241, 242, 243, 244, 245, 246, 247, 248, 249, 250, 251, 252, 253, 254, 255, 256, 257, 258, 259, 260, 261, 262, 263, 264, 265, 266, 267, 268, 269, 270, 271, 272, 273, 274, 275, 276, 277, 278, 279, 280, 281, 282, 283, 284, 285, 286, 287, 288, 289, 290, 291, 292, 293, 294, 295, 296, 297, 298, 299, 300, 301, 302, 303, 304, 305, 306, 307, 308, 309, 310, 311, 312, 313, 314, 315, 316, 317, 318, 319, 320, 321, 322, 323, 324, 325, 326, 327, 328, 329, 330, 331, 332, 333, 334, 335, 336, 337, 338, 339, 340, 341, 342, 343, 344, 345, 346, 347, 348, 349, 350, 351, 352, 353, 354, 355, 356, 357, 358, 359, 360, 361, 362, 363, 364, 365, 366, 367, 368, 369, 370, 371, 372, 373, 374, 375, 376, 377, 378, 379, 380, 381, 382, 383, 384, 385, 386, 387, 388, 389, 390, 391, 392, 393, 394, 395, 396, 397, 398, 399, 400, 401, 402, 403, 404, 405, 406, 407, 408, 409, 410, 411, 412, 413, 414, 415, 416, 417, 418, 419, 420, 421, 422, 423, 424, 425, 426, 427, 428, 429, 430, 431, 432, 433, 434, 435, 436, 437, 438, 439, 440, 441, 442, 443, 444, 445, 446, 447, 448, 449, 450, 451, 452, 453, 454, 455, 456, 457, 458, 459, 460, 461, 462, 463, 464, 465, 466, 467, 468, 469, 470, 471, 472, 473, 474, 475, 476, 477, 478, 479, 480, 481, 482, 483, 484, 485, 486, 487, 488, 489, 490],
      "AcquisitionTime": ["151907.430000", "151909.430000", "151911.430000", "151913.430000", "151915.430000", "151917.430000", "151919.430000", "151921.430000", "151923.430000", "151925.430000", "151927.430000", "151929.430000", "151931.430000", "151933.430000", "151935.430000", "151937.430000", "151939.430000", "151941.430000", "151943.430000", "151945.430000", "151947.430000", "151949.430000", "151951.430000", "151953.430000", "151955.430000", "151957.430000", "151959.430000", "152001.430000", "152003.430000", "152005.430000", "152007.430000", "152009.430000", "152011.430000", "152013.430000", "152015.430000", "152017.430000", "152019.430000", "152021.430000", "152023.430000", "152025.430000", "152027.430000", "152029.430000", "152031.430000", "152033.430000", "152035.430000", "152037.430000", "152039.430000", "152041.430000", "152043.430000", "152045.430000", "152047.430000", "152049.430000", "152051.430000", "152053.430000", "152055.430000", "152057.430000", "152059.430000", "152101.430000", "152103.430000", "152105.430000", "152107.430000", "152109.430000", "152111.430000", "152113.430000", "152115.430000", "152117.430000", "152119.430000", "152121.430000", "152123.430000", "152125.430000", "152127.430000", "152129.430000", "152131.430000", "152133.430000", "152135.430000", "152137.430000", "152139.430000", "152141.430000", "152143.430000", "152145.430000", "152147.430000", "152149.430000", "152151.430000", "152153.430000", "152155.430000", "152157.430000", "152159.430000", "152201.430000", "152203.430000", "152205.430000", "152207.430000", "152209.430000", "152211.430000", "152213.430000", "152215.430000", "152217.430000", "152219.430000", "152221.430000", "152223.430000", "152225.430000", "152227.430000", "152229.430000", "152231.430000", "152233.430000", "152235.430000", "152237.430000", "152239.430000", "152241.430000", "152243.430000", "152245.430000", "152247.430000", "152249.430000", "152251.430000", "152253.430000", "152255.430000", "152257.430000", "152259.430000", "152301.430000", "152303.430000", "152305.430000", "152307.430000", "152309.430000", "152311.430000", "152313.430000", "152315.430000", "152317.430000", "152319.430000", "152321.430000", "152323.430000", "152325.430000", "152327.430000", "152329.430000", "152331.430000", "152333.430000", "152335.430000", "152337.430000", "152339.430000", "152341.430000", "152343.430000", "152345.430000", "152347.430000", "152349.430000", "152351.430000", "152353.430000", "152355.430000", "152357.430000", "152359.430000", "152401.430000", "152403.430000", "152405.430000", "152407.430000", "152409.430000", "152411.430000", "152413.430000", "152415.430000", "152417.430000", "152419.430000", "152421.430000", "152423.430000", "152425.430000", "152427.430000", "152429.430000", "152431.430000", "152433.430000", "152435.430000", "152437.430000", "152439.430000", "152441.430000", "152443.430000", "152445.430000", "152447.430000", "152449.430000", "152451.430000", "152453.430000", "152455.430000", "152457.430000", "152459.430000", "152501.430000", "152503.430000", "152505.430000", "152507.430000", "152509.430000", "152511.430000", "152513.430000", "152515.430000", "152517.430000", "152519.430000", "152521.430000", "152523.430000", "152525.430000", "152527.430000", "152529.430000", "152531.430000", "152533.430000", "152535.430000", "152537.430000", "152539.430000", "152541.430000", "152543.430000", "152545.430000", "152547.430000", "152549.430000", "152551.430000", "152553.430000", "152555.430000", "152557.430000", "152559.430000", "152601.430000", "152603.430000", "152605.430000", "152607.430000", "152609.430000", "152611.430000", "152613.430000", "152615.430000", "152617.430000", "152619.430000", "152621.430000", "152623.430000", "152625.430000", "152627.430000", "152629.430000", "152631.430000", "152633.430000", "152635.430000", "152637.430000", "152639.430000", "152641.430000", "152643.430000", "152645.430000", "152647.430000", "152649.430000", "152651.430000", "152653.430000", "152655.430000", "152657.430000", "152659.430000", "152701.430000", "152703.430000", "152705.430000", "152707.430000", "152709.430000", "152711.430000", "152713.430000", "152715.430000", "152717.430000", "152719.430000", "152721.430000", "152723.430000", "152725.430000", "152727.430000", "152729.430000", "152731.430000", "152733.430000", "152735.430000", "152737.430000", "152739.430000", "152741.430000", "152743.430000", "152745.430000", "152747.430000", "152749.430000", "152751.430000", "152753.430000", "152755.430000", "152757.430000", "152759.430000", "152801.430000", "152803.430000", "152805.430000", "152807.430000", "152809.430000", "152811.430000", "152813.430000", "152815.430000", "152817.430000", "152819.430000", "152821.430000", "152823.430000", "152825.430000", "152827.430000", "152829.430000", "152831.430000", "152833.430000", "152835.430000", "152837.430000", "152839.430000", "152841.430000", "152843.430000", "152845.430000", "152847.430000", "152849.430000", "152851.430000", "152853.430000", "152855.430000", "152857.430000", "152859.430000", "152901.430000", "152903.430000", "152905.430000", "152907.430000", "152909.430000", "152911.430000", "152913.430000", "152915.430000", "152917.430000", "152919.430000", "152921.430000", "152923.430000", "152925.430000", "152927.430000", "152929.430000", "152931.430000", "152933.430000", "152935.430000", "152937.430000", "152939.430000", "152941.430000", "152943.430000", "152945.430000", "152947.430000", "152949.430000", "152951.430000", "152953.430000", "152955.430000", "152957.430000", "152959.430000", "153001.430000", "153003.430000", "153005.430000", "153007.430000", "153009.430000", "153011.430000", "153013.430000", "153015.430000", "153017.430000", "153019.430000", "153021.430000", "153023.430000", "153025.430000", "153027.430000", "153029.430000", "153031.430000", "153033.430000", "153035.430000", "153037.430000", "153039.430000", "153041.430000", "153043.430000", "153045.430000", "153047.430000", "153049.430000", "153051.430000", "153053.430000", "153055.430000", "153057.430000", "153059.430000", "153101.430000", "153103.430000", "153105.430000", "153107.430000", "153109.430000", "153111.430000", "153113.430000", "153115.430000", "153117.430000", "153119.430000", "153121.430000", "153123.430000", "153125.430000", "153127.430000", "153129.430000", "153131.430000", "153133.430000", "153135.430000", "153137.430000", "153139.430000", "153141.430000", "153143.430000", "153145.430000", "153147.430000", "153149.430000", "153151.430000", "153153.430000", "153155.430000", "153157.430000", "153159.430000", "153201.430000", "153203.430000", "153205.430000", "153207.430000", "153209.430000", "153211.430000", "153213.430000", "153215.430000", "153217.430000", "153219.430000", "153221.430000", "153223.430000", "153225.430000", "153227.430000", "153229.430000", "153231.430000", "153233.430000", "153235.430000", "153237.430000", "153239.430000", "153241.430000", "153243.430000", "153245.430000", "153247.430000", "153249.430000", "153251.430000", "153253.430000", "153255.430000", "153257.430000", "153259.430000", "153301.430000", "153303.430000", "153305.430000", "153307.430000", "153309.430000", "153311.430000", "153313.430000", "153315.430000", "153317.430000", "153319.430000", "153321.430000", "153323.430000", "153325.430000", "153327.430000", "153329.430000", "153331.430000", "153333.430000", "153335.430000", "153337.430000", "153339.430000", "153341.430000", "153343.430000", "153345.430000", "153347.430000", "153349.430000", "153351.430000", "153353.430000", "153355.430000", "153357.430000", "153359.430000", "153401.430000", "153403.430000", "153405.430000", "153407.430000", "153409.430000", "153411.430000", "153413.430000", "153415.430000", "153417.430000", "153419.430000", "153421.430000", "153423.430000", "153425.430000", "153427.430000", "153429.430000", "153431.430000", "153433.430000", "153435.430000", "153437.430000", "153439.430000", "153441.430000", "153443.430000", "153445.430000", "153447.430000", "153449.430000", "153451.430000", "153453.430000", "153455.430000", "153457.430000", "153459.430000", "153501.430000", "153503.430000", "153505.430000", "153507.430000", "153509.430000", "153511.430000", "153513.430000", "153515.430000", "153517.430000", "153519.430000", "153521.430000", "153523.430000", "153525.430000"],
      "ContentTime": ["151959.576000", "151959.587000", "151959.589000", "151959.592000", "151959.595000", "151959.597000", "151959.600000", "151959.602000", "151959.605000", "151959.607000", "151959.610000", "151959.612000", "151959.618000", "151959.628000", "151959.630000", "151959.633000", "151959.635000", "151959.638000", "151959.646000", "151959.648000", "151959.651000", "151959.655000", "151959.658000", "151959.661000", "151959.664000", "152039.542000", "152039.545000", "152039.548000", "152039.550000", "152039.553000", "152039.555000", "152039.558000", "152039.560000", "152039.563000", "152039.565000", "152039.568000", "152039.570000", "152039.583000", "152039.585000", "152039.588000", "152039.590000", "152039.593000", "152039.595000", "152039.598000", "152039.600000", "152119.541000", "152119.544000", "152119.547000", "152119.550000", "152119.552000", "152119.555000", "152119.557000", "152119.560000", "152119.562000", "152119.565000", "152119.568000", "152119.570000", "152119.573000", "152119.575000", "152119.578000", "152119.580000", "152119.583000", "152119.586000", "152119.588000", "152119.591000", "152159.541000", "152159.544000", "152159.547000", "152159.549000", "152159.552000", "152159.554000", "152159.557000", "152159.559000", "152159.562000", "152159.564000", "152159.567000", "152159.569000", "152159.572000", "152159.574000", "152159.577000", "152159.579000", "152159.582000", "152159.585000", "152159.587000", "152159.590000", "152239.542000", "152239.544000", "152239.547000", "152239.550000", "152239.552000", "152239.555000", "152239.557000", "152239.560000", "152239.562000", "152239.565000", "152239.568000", "152239.570000", "152239.573000", "152239.575000", "152239.578000", "152239.580000", "152239.583000", "152239.585000", "152239.588000", "152239.591000", "152319.542000", "152319.545000", "152319.548000", "152319.550000", "152319.564000", "152319.566000", "152319.569000", "152319.571000", "152319.574000", "152319.576000", "152319.579000", "152319.582000", "152319.584000", "152319.587000", "152319.589000", "152319.592000", "152319.594000", "152319.597000", "152319.599000", "152319.602000", "152359.542000", "152359.544000", "152359.547000", "152359.549000", "152359.552000", "152359.555000", "152359.557000", "152359.560000", "152359.562000", "152359.565000", "152359.567000", "152359.570000", "152359.572000", "152359.575000", "152359.577000", "152359.580000", "152359.582000", "152359.585000", "152359.587000", "152359.590000", "152439.541000", "152439.544000", "152439.547000", "152439.550000", "152439.552000", "152439.555000", "152439.557000", "152439.560000", "152439.562000", "152439.565000", "152439.567000", "152439.570000", "152439.572000", "152439.575000", "152439.578000", "152439.580000", "152439.583000", "152439.585000", "152439.588000", "152439.590000", "152519.543000", "152519.545000", "152519.548000", "152519.551000", "152519.553000", "152519.556000", "152519.559000", "152519.561000", "152519.564000", "152519.577000", "152519.586000", "152519.589000", "152519.591000", "152519.594000", "152519.596000", "152519.599000", "152519.602000", "152519.604000", "152519.607000", "152519.609000", "152559.541000", "152559.544000", "152559.547000", "152559.549000", "152559.552000", "152559.554000", "152559.557000", "152559.560000", "152559.562000", "152559.565000", "152559.567000", "152559.570000", "152559.572000", "152559.575000", "152559.578000", "152559.580000", "152559.583000", "152559.585000", "152559.588000", "152559.590000", "152639.541000", "152639.544000", "152639.547000", "152639.549000", "152639.552000", "152639.555000", "152639.557000", "152639.560000", "152639.562000", "152639.565000", "152639.567000", "152639.570000", "152639.572000", "152639.575000", "152639.578000", "152639.580000", "152639.583000", "152639.585000", "152639.588000", "152639.590000", "152719.543000", "152719.545000", "152719.548000", "152719.551000", "152719.553000", "152719.556000", "152719.558000", "152719.561000", "152719.564000", "152719.566000", "152719.569000", "152719.571000", "152719.574000", "152719.576000", "152719.579000", "152719.582000", "152719.584000", "152719.587000", "152719.589000", "152719.592000", "152759.541000", "152759.544000", "152759.547000", "152759.550000", "152759.552000", "152759.555000", "152759.558000", "152759.560000", "152759.563000", "152759.565000", "152759.568000", "152759.571000", "152759.573000", "152759.576000", "152759.578000", "152759.581000", "152759.584000", "152759.586000", "152759.589000", "152759.591000", "152839.541000", "152839.544000", "152839.547000", "152839.550000", "152839.552000", "152839.555000", "152839.557000", "152839.560000", "152839.563000", "152839.578000", "152839.580000", "152839.583000", "152839.585000", "152839.588000", "152839.590000", "152839.593000", "152839.596000", "152839.598000", "152839.601000", "152839.603000", "152919.542000", "152919.544000", "152919.547000", "152919.550000", "152919.552000", "152919.555000", "152919.557000", "152919.560000", "152919.562000", "152919.565000", "152919.568000", "152919.570000", "152919.573000", "152919.575000", "152919.578000", "152919.581000", "152919.583000", "152919.586000", "152919.589000", "152919.591000", "152959.542000", "152959.545000", "152959.548000", "152959.551000", "152959.553000", "152959.556000", "152959.558000", "152959.561000", "152959.564000", "152959.566000", "152959.569000", "152959.571000", "152959.574000", "152959.577000", "152959.579000", "152959.582000", "152959.584000", "152959.587000", "152959.590000", "152959.592000", "153039.542000", "153039.545000", "153039.547000", "153039.550000", "153039.552000", "153039.555000", "153039.557000", "153039.560000", "153039.563000", "153039.565000", "153039.568000", "153039.570000", "153039.573000", "153039.575000", "153039.578000", "153039.580000", "153039.583000", "153039.585000", "153039.588000", "153039.590000", "153119.542000", "153119.544000", "153119.547000", "153119.550000", "153119.552000", "153119.555000", "153119.557000", "153119.560000", "153119.562000", "153119.565000", "153119.567000", "153119.570000", "153119.572000", "153119.575000", "153119.578000", "153119.580000", "153119.583000", "153119.585000", "153119.588000", "153119.590000", "153159.542000", "153159.545000", "153159.548000", "153159.550000", "153159.554000", "153159.556000", "153159.559000", "153159.561000", "153159.564000", "153159.567000", "153159.569000", "153159.572000", "153159.574000", "153159.577000", "153159.580000", "153159.582000", "153159.585000", "153159.587000", "153159.590000", "153159.593000", "153239.542000", "153239.545000", "153239.547000", "153239.550000", "153239.553000", "153239.555000", "153239.558000", "153239.560000", "153239.563000", "153239.566000", "153239.569000", "153239.571000", "153239.574000", "153239.577000", "153239.579000", "153239.582000", "153239.585000", "153239.588000", "153239.590000", "153239.593000", "153319.542000", "153319.545000", "153319.547000", "153319.550000", "153319.552000", "153319.555000", "153319.557000", "153319.560000", "153319.562000", "153319.565000", "153319.568000", "153319.571000", "153319.573000", "153319.576000", "153319.579000", "153319.581000", "153319.584000", "153319.586000", "153319.589000", "153319.591000", "153339.542000", "153339.544000", "153339.547000", "153339.550000", "153339.552000", "153339.555000", "153339.557000", "153339.560000", "153339.562000", "153339.565000", "153419.542000", "153419.545000", "153419.548000", "153419.550000", "153419.553000", "153419.564000", "153419.567000", "153419.569000", "153419.572000", "153419.574000", "153419.577000", "153419.580000", "153419.582000", "153419.585000", "153419.587000", "153419.590000", "153419.593000", "153419.595000", "153419.598000", "153419.601000", "153459.542000", "153459.544000", "153459.547000", "153459.549000", "153459.552000", "153459.555000", "153459.557000", "153459.560000", "153459.562000", "153459.565000", "153459.567000", "153459.570000", "153459.572000", "153459.575000", "153459.578000", "153459.580000", "153459.583000", "153459.585000", "153459.588000", "153459.590000", "153529.526000", "153529.530000", "153529.532000", "153529.535000", "153529.538000", "153529.540000", "153529.543000", "153529.546000", "153529.548000", "153529.551000", "153529.553000", "153529.556000", "153529.558000", "153529.561000", "153529.564000"],
