{
  "AcquisitionMatrixPE": 96,
  "AcquisitionNumber": 1,
  "AcquisitionTime": "13:44:58.737500",
  "BandwidthPerPixelPhaseEncode": 20.425,
  "BaseResolution": 96,
  "BodyPartExamined": "BRAIN",
  "CoilCombinationMethod": "Sum of Squares",
  "ConsistencyInfo": "N4_VE11C_LATEST_20160120",
  "ConversionSoftware": "dcm2niix",
  "ConversionSoftwareVersion": "v1.0.20211006",
  "DerivedVendorReportedEchoSpacing": 0.000509996,
  "DeviceSerialNumber": "166054",
  "DwellTime": 2.3e-06,
  "EchoTime": 0.03,
  "EchoTrainLength": 96,
  "EffectiveEchoSpacing": 0.000509996,
  "FlipAngle": 75,
  "HeudiconvVersion": "0.11.3+d20220512",
  "ImageComments": "Unaliased MB2/PE2",
  "ImageOrientationPatientDICOM": [0.997504, -0.000631014, -0.070609, -0.0306508, 0.896971, -0.441025],
  "ImageOrientationText": "Tra>Cor(-26.3)>Sag(-3.6)",
  "ImageType": [
    "ORIGINAL",
    "PRIMARY",
    "M",
    "MB",
    "ND",
    "MOSAIC"
],
  "ImagingFrequency": 123.26,
  "InPlanePhaseEncodingDirectionDICOM": "COL",
  "InstitutionAddress": "Street StreetNo,City,District,IL,ZIP",
  "InstitutionName": "Weizmann Institute",
  "InstitutionalDepartmentName": "Department",
  "MRAcquisitionType": "2D",
  "MagneticFieldStrength": 3,
  "Manufacturer": "Siemens",
  "ManufacturersModelName": "Prisma",
  "MatrixCoilMode": "SENSE",
  "Modality": "MR",
  "MultibandAccelerationFactor": 2,
  "PartialFourier": 1,
  "PatientPosition": "HFS",
  "PercentPhaseFOV": 100,
  "PercentSampling": 100,
  "PhaseEncodingDirection": "j-",
  "PhaseEncodingSteps": 96,
  "PhaseResolution": 1,
  "PixelBandwidth": 2265,
  "ProcedureStepDescription": "Weizmann^Sobel",
  "ProtocolName": "EPI_PSAP_iso2.5",
  "PulseSequenceDetails": "%CustomerSeq%\\cmrr_mbep2d_bold",
  "ReceiveCoilActiveElements": "HEA;HEP",
  "ReceiveCoilName": "Head_32",
  "ReconMatrixPE": 96,
  "RepetitionTime": 2,
  "SAR": 0.127848,
  "ScanOptions": "FS",
  "ScanningSequence": "EP",
  "SequenceName": "epfid2d1_96",
  "SequenceVariant": "SK\\SS",
  "SeriesDescription": "EPI_PSAP_iso2.5",
  "SeriesNumber": 6,
  "ShimSetting": [5898, -4005, -1872, 473, 3, 59, 10, 76],
  "SliceThickness": 2.5,
  "SliceTiming": [0, 0.9175, 1.8375, 0.7775, 1.695, 0.635, 1.555, 0.495, 1.4125, 0.3525, 1.2725, 0.21, 1.13, 0.07, 0.99, 1.9075, 0.8475, 1.7675, 0.705, 1.625, 0.565, 1.485, 0.4225, 1.3425, 0.2825, 1.2, 0.14, 1.06, 0, 0.9175, 1.8375, 0.7775, 1.695, 0.635, 1.555, 0.495, 1.4125, 0.3525, 1.2725, 0.21, 1.13, 0.07, 0.99, 1.9075, 0.8475, 1.7675, 0.705, 1.625, 0.565, 1.485, 0.4225, 1.3425, 0.2825, 1.2, 0.14, 1.06],
  "SoftwareVersions": "syngo MR E11",
  "SpacingBetweenSlices": 2.5,
  "StationName": "AWP166054",
  "TaskName": "PSAP",
  "TotalReadoutTime": 0.0484496,
  "TxRefAmp": 246,
  "VendorReportedEchoSpacing": 0.00051,
  "WipMemBlock": "77882e89-b595-4ac4-b382-65c11d6cdc43||Sequence: R016 ve11c/master r/e634e98; Dec 19 2017 11:00:25 by eja",
  "dcmmeta_affine": [
    [-2.4937596321105957, -0.07662702351808548, -0.15903134644031525, 126.31077575683594],
    [0.0015775355277583003, 2.2424285411834717, -1.105220079421997, -72.40686798095703],
    [-0.17652246356010437, 1.102561593055725, 2.2367827892303467, -100.06108856201172],
    [0.0, 0.0, 0.0, 1.0]
],
  "dcmmeta_reorient_transform": [
    [0.0, -1.0, 0.0, 95.0],
    [1.0, 0.0, 0.0, 0.0],
    [0.0, 0.0, 1.0, 0.0],
    [0.0, 0.0, 0.0, 1.0]
],
  "dcmmeta_shape": [96, 96, 56, 503],
  "dcmmeta_slice_dim": 2,
  "dcmmeta_version": 0.6,
  "global": {
    "const": {
      "AcquisitionMatrix": [96, 0, 0, 96],
      "AngioFlag": "N",
      "BitsAllocated": 16,
      "BitsStored": 16,
      "BodyPartExamined": "BRAIN",
      "Columns": 768,
      "EchoNumbers": 1,
      "EchoTime": 30.0,
      "EchoTrainLength": 96,
      "FlipAngle": 75.0,
      "HighBit": 15,
      "ImageOrientationPatient": [0.99750387105394, -0.0006310141959, -0.070608987059, -0.03065081034, 0.89697145295024, -0.441024648311],
      "ImagePositionPatient": [-931.18778003837, -893.54982092948, 434.45452194978],
      "ImageType": [
        "ORIGINAL",
        "PRIMARY",
        "M",
        "MB",
        "ND",
        "MOSAIC"
],
      "ImagedNucleus": "1H",
      "ImagingFrequency": 123.260178,
      "InPlanePhaseEncodingDirection": "COL",
      "MRAcquisitionType": "2D",
      "MagneticFieldStrength": 3.0,
      "Manufacturer": "SIEMENS",
      "ManufacturerModelName": "Prisma",
      "Modality": "MR",
      "NumberOfAverages": 1.0,
      "NumberOfPhaseEncodingSteps": 96,
      "PercentPhaseFieldOfView": 100.0,
      "PercentSampling": 100.0,
      "PerformedProcedureStepStartTime": "132020.441000",
      "PhotometricInterpretation": "MONOCHROME2",
      "PixelBandwidth": 2265.0,
      "PixelRepresentation": 0,
      "PixelSpacing": [2.5, 2.5],
      "ProtocolName": "EPI_PSAP_iso2.5",
      "RepetitionTime": 2000.0,
      "Rows": 768,
      "SAR": 0.12784758533111,
      "SamplesPerPixel": 1,
      "ScanOptions": "FS",
      "ScanningSequence": "EP",
      "SequenceName": "epfid2d1_96",
      "SequenceVariant": [
        "SK",
        "SS"
],
      "SeriesDescription": "EPI_PSAP_iso2.5",
      "SeriesNumber": 6,
      "SeriesTime": "134552.295000",
      "SliceLocation": -65.550710362398,
      "SliceThickness": 2.5,
      "SmallestImagePixelValue": 0,
      "SoftwareVersions": "syngo MR E11",
      "SpacingBetweenSlices": 2.4999999673431,
      "SpecificCharacterSet": "ISO_IR 100",
      "StudyID": "2",
      "StudyTime": "132020.353000",
      "TransmitCoilName": "Body",
      "VariableFlipAngleFlag": "N",
      "WindowCenterWidthExplanation": "Algo1",
      "dBdt": 0.0},
    "slices": {}
  },
  "time": {
    "samples": {
      "AcquisitionNumber": [1, 2, 3, 4, 5, 6, 7, 8, 9, 10, 11, 12, 13, 14, 15, 16, 17, 18, 19, 20, 21, 22, 23, 24, 25, 26, 27, 28, 29, 30, 31, 32, 33, 34, 35, 36, 37, 38, 39, 40, 41, 42, 43, 44, 45, 46, 47, 48, 49, 50, 51, 52, 53, 54, 55, 56, 57, 58, 59, 60, 61, 62, 63, 64, 65, 66, 67, 68, 69, 70, 71, 72, 73, 74, 75, 76, 77, 78, 79, 80, 81, 82, 83, 84, 85, 86, 87, 88, 89, 90, 91, 92, 93, 94, 95, 96, 97, 98, 99, 100, 101, 102, 103, 104, 105, 106, 107, 108, 109, 110, 111, 112, 113, 114, 115, 116, 117, 118, 119, 120, 121, 122, 123, 124, 125, 126, 127, 128, 129, 130, 131, 132, 133, 134, 135, 136, 137, 138, 139, 140, 141, 142, 143, 144, 145, 146, 147, 148, 149, 150, 151, 152, 153, 154, 155, 156, 157, 158, 159, 160, 161, 162, 163, 164, 165, 166, 167, 168, 169, 170, 171, 172, 173, 174, 175, 176, 177, 178, 179, 180, 181, 182, 183, 184, 185, 186, 187, 188, 189, 190, 191, 192, 193, 194, 195, 196, 197, 198, 199, 200, 201, 202, 203, 204, 205, 206, 207, 208, 209, 210, 211, 212, 213, 214, 215, 216, 217, 218, 219, 220, 221, 222, 223, 224, 225, 226, 227, 228, 229, 230, 231, 232, 233, 234, 235, 236, 237, 238, 239, 240, 241, 242, 243, 244, 245, 246, 247, 248, 249, 250, 251, 252, 253, 254, 255, 256, 257, 258, 259, 260, 261, 262, 263, 264, 265, 266, 267, 268, 269, 270, 271, 272, 273, 274, 275, 276, 277, 278, 279, 280, 281, 282, 283, 284, 285, 286, 287, 288, 289, 290, 291, 292, 293, 294, 295, 296, 297, 298, 299, 300, 301, 302, 303, 304, 305, 306, 307, 308, 309, 310, 311, 312, 313, 314, 315, 316, 317, 318, 319, 320, 321, 322, 323, 324, 325, 326, 327, 328, 329, 330, 331, 332, 333, 334, 335, 336, 337, 338, 339, 340, 341, 342, 343, 344, 345, 346, 347, 348, 349, 350, 351, 352, 353, 354, 355, 356, 357, 358, 359, 360, 361, 362, 363, 364, 365, 366, 367, 368, 369, 370, 371, 372, 373, 374, 375, 376, 377, 378, 379, 380, 381, 382, 383, 384, 385, 386, 387, 388, 389, 390, 391, 392, 393, 394, 395, 396, 397, 398, 399, 400, 401, 402, 403, 404, 405, 406, 407, 408, 409, 410, 411, 412, 413, 414, 415, 416, 417, 418, 419, 420, 421, 422, 423, 424, 425, 426, 427, 428, 429, 430, 431, 432, 433, 434, 435, 436, 437, 438, 439, 440, 441, 442, 443, 444, 445, 446, 447, 448, 449, 450, 451, 452, 453, 454, 455, 456, 457, 458, 459, 460, 461, 462, 463, 464, 465, 466, 467, 468, 469, 470, 471, 472, 473, 474, 475, 476, 477, 478, 479, 480, 481, 482, 483, 484, 485, 486, 487, 488, 489, 490, 491, 492, 493, 494, 495, 496, 497, 498, 499, 500, 501, 502, 503],
      "AcquisitionTime": ["134458.737500", "134500.737500", "134502.737500", "134504.737500", "134506.737500", "134508.737500", "134510.737500", "134512.737500", "134514.737500", "134516.737500", "134518.737500", "134520.737500", "134522.737500", "134524.737500", "134526.737500", "134528.737500", "134530.737500", "134532.737500", "134534.737500", "134536.737500", "134538.737500", "134540.737500", "134542.737500", "134544.737500", "134546.737500", "134548.737500", "134550.737500", "134552.737500", "134554.737500", "134556.737500", "134558.737500", "134600.737500", "134602.737500", "134604.737500", "134606.737500", "134608.737500", "134610.737500", "134612.737500", "134614.737500", "134616.737500", "134618.737500", "134620.737500", "134622.737500", "134624.737500", "134626.737500", "134628.737500", "134630.737500", "134632.737500", "134634.737500", "134636.737500", "134638.737500", "134640.737500", "134642.737500", "134644.737500", "134646.737500", "134648.737500", "134650.737500", "134652.737500", "134654.737500", "134656.737500", "134658.737500", "134700.737500", "134702.737500", "134704.737500", "134706.737500", "134708.737500", "134710.737500", "134712.737500", "134714.737500", "134716.737500", "134718.737500", "134720.737500", "134722.737500", "134724.737500", "134726.737500", "134728.737500", "134730.737500", "134732.737500", "134734.737500", "134736.737500", "134738.737500", "134740.737500", "134742.737500", "134744.737500", "134746.737500", "134748.737500", "134750.737500", "134752.737500", "134754.737500", "134756.737500", "134758.737500", "134800.737500", "134802.737500", "134804.737500", "134806.737500", "134808.737500", "134810.737500", "134812.737500", "134814.737500", "134816.737500", "134818.737500", "134820.737500", "134822.737500", "134824.737500", "134826.737500", "134828.737500", "134830.737500", "134832.737500", "134834.737500", "134836.737500", "134838.737500", "134840.737500", "134842.737500", "134844.737500", "134846.737500", "134848.737500", "134850.737500", "134852.737500", "134854.737500", "134856.737500", "134858.737500", "134900.737500", "134902.737500", "134904.737500", "134906.737500", "134908.737500", "134910.737500", "134912.737500", "134914.737500", "134916.737500", "134918.737500", "134920.737500", "134922.737500", "134924.737500", "134926.737500", "134928.737500", "134930.737500", "134932.737500", "134934.737500", "134936.737500", "134938.737500", "134940.737500", "134942.737500", "134944.737500", "134946.737500", "134948.737500", "134950.737500", "134952.737500", "134954.737500", "134956.737500", "134958.737500", "135000.737500", "135002.737500", "135004.737500", "135006.737500", "135008.737500", "135010.737500", "135012.737500", "135014.737500", "135016.737500", "135018.737500", "135020.737500", "135022.737500", "135024.737500", "135026.737500", "135028.737500", "135030.737500", "135032.737500", "135034.737500", "135036.737500", "135038.737500", "135040.737500", "135042.737500", "135044.737500", "135046.737500", "135048.737500", "135050.737500", "135052.737500", "135054.737500", "135056.737500", "135058.737500", "135100.737500", "135102.737500", "135104.737500", "135106.737500", "135108.737500", "135110.737500", "135112.737500", "135114.737500", "135116.737500", "135118.737500", "135120.737500", "135122.737500", "135124.737500", "135126.737500", "135128.737500", "135130.737500", "135132.737500", "135134.737500", "135136.737500", "135138.737500", "135140.737500", "135142.737500", "135144.737500", "135146.737500", "135148.737500", "135150.737500", "135152.737500", "135154.737500", "135156.737500", "135158.737500", "135200.737500", "135202.737500", "135204.737500", "135206.737500", "135208.737500", "135210.737500", "135212.737500", "135214.737500", "135216.737500", "135218.737500", "135220.737500", "135222.737500", "135224.737500", "135226.737500", "135228.737500", "135230.737500", "135232.737500", "135234.737500", "135236.737500", "135238.737500", "135240.737500", "135242.737500", "135244.737500", "135246.737500", "135248.737500", "135250.737500", "135252.737500", "135254.737500", "135256.737500", "135258.737500", "135300.737500", "135302.737500", "135304.737500", "135306.737500", "135308.737500", "135310.737500", "135312.737500", "135314.737500", "135316.737500", "135318.737500", "135320.737500", "135322.737500", "135324.737500", "135326.737500", "135328.737500", "135330.737500", "135332.737500", "135334.737500", "135336.737500", "135338.737500", "135340.737500", "135342.737500", "135344.737500", "135346.737500", "135348.737500", "135350.737500", "135352.737500", "135354.737500", "135356.737500", "135358.737500", "135400.737500", "135402.737500", "135404.737500", "135406.737500", "135408.737500", "135410.737500", "135412.737500", "135414.737500", "135416.737500", "135418.737500", "135420.737500", "135422.737500", "135424.737500", "135426.737500", "135428.737500", "135430.737500", "135432.737500", "135434.737500", "135436.737500", "135438.737500", "135440.737500", "135442.737500", "135444.737500", "135446.737500", "135448.737500", "135450.737500", "135452.737500", "135454.737500", "135456.737500", "135458.737500", "135500.737500", "135502.737500", "135504.737500", "135506.737500", "135508.737500", "135510.737500", "135512.737500", "135514.737500", "135516.737500", "135518.737500", "135520.737500", "135522.737500", "135524.737500", "135526.737500", "135528.737500", "135530.737500", "135532.737500", "135534.737500", "135536.737500", "135538.737500", "135540.737500", "135542.737500", "135544.737500", "135546.737500", "135548.737500", "135550.737500", "135552.737500", "135554.737500", "135556.737500", "135558.737500", "135600.737500", "135602.737500", "135604.737500", "135606.737500", "135608.737500", "135610.737500", "135612.737500", "135614.737500", "135616.737500", "135618.737500", "135620.737500", "135622.737500", "135624.737500", "135626.737500", "135628.737500", "135630.737500", "135632.737500", "135634.737500", "135636.737500", "135638.737500", "135640.737500", "135642.737500", "135644.737500", "135646.737500", "135648.737500", "135650.737500", "135652.737500", "135654.737500", "135656.737500", "135658.737500", "135700.737500", "135702.737500", "135704.737500", "135706.737500", "135708.737500", "135710.737500", "135712.737500", "135714.737500", "135716.737500", "135718.737500", "135720.737500", "135722.737500", "135724.737500", "135726.737500", "135728.737500", "135730.737500", "135732.737500", "135734.737500", "135736.737500", "135738.737500", "135740.737500", "135742.737500", "135744.737500", "135746.737500", "135748.737500", "135750.737500", "135752.737500", "135754.737500", "135756.737500", "135758.737500", "135800.737500", "135802.737500", "135804.737500", "135806.737500", "135808.737500", "135810.737500", "135812.737500", "135814.737500", "135816.737500", "135818.737500", "135820.737500", "135822.737500", "135824.737500", "135826.737500", "135828.737500", "135830.737500", "135832.737500", "135834.737500", "135836.737500", "135838.737500", "135840.737500", "135842.737500", "135844.737500", "135846.737500", "135848.737500", "135850.737500", "135852.737500", "135854.737500", "135856.737500", "135858.737500", "135900.737500", "135902.737500", "135904.737500", "135906.737500", "135908.737500", "135910.737500", "135912.737500", "135914.737500", "135916.737500", "135918.737500", "135920.737500", "135922.737500", "135924.737500", "135926.737500", "135928.737500", "135930.737500", "135932.737500", "135934.737500", "135936.737500", "135938.737500", "135940.737500", "135942.737500", "135944.737500", "135946.737500", "135948.737500", "135950.737500", "135952.737500", "135954.737500", "135956.737500", "135958.737500", "140000.737500", "140002.737500", "140004.737500", "140006.737500", "140008.737500", "140010.737500", "140012.737500", "140014.737500", "140016.737500", "140018.737500", "140020.737500", "140022.737500", "140024.737500", "140026.737500", "140028.737500", "140030.737500", "140032.737500", "140034.737500", "140036.737500", "140038.737500", "140040.737500", "140042.737500", "140044.737500", "140046.737500", "140048.737500", "140050.737500", "140052.737500", "140054.737500", "140056.737500", "140058.737500", "140100.737500", "140102.737500", "140104.737500", "140106.737500", "140108.737500", "140110.737500", "140112.737500", "140114.737500", "140116.737500", "140118.737500", "140120.737500", "140122.737500", "140124.737500", "140126.737500", "140128.737500", "140130.737500", "140132.737500", "140134.737500", "140136.737500", "140138.737500", "140140.737500", "140142.737500"],
      "ContentTime": ["134552.298000", "134552.314000", "134552.317000", "134552.319000", "134552.322000", "134552.324000", "134552.335000", "134552.337000", "134552.340000", "134552.343000", "134552.345000", "134552.348000", "134552.350000", "134552.353000", "134552.356000", "134552.358000", "134552.361000", "134552.363000", "134552.366000", "134552.368000", "134552.371000", "134552.374000", "134552.376000", "134552.379000", "134552.381000", "134552.384000", "134632.261000", "134632.264000", "134632.267000", "134632.269000", "134632.272000", "134632.275000", "134632.283000", "134632.285000", "134632.288000", "134632.290000", "134632.293000", "134632.296000", "134632.298000", "134632.301000", "134632.303000", "134632.306000", "134632.308000", "134632.311000", "134632.313000", "134632.316000", "134712.261000", "134712.264000", "134712.275000", "134712.278000", "134712.280000", "134712.288000", "134712.290000", "134712.293000", "134712.295000", "134712.298000", "134712.301000", "134712.303000", "134712.306000", "134712.308000", "134712.311000", "134712.313000", "134712.316000", "134712.330000", "134712.333000", "134712.335000", "134752.260000", "134752.263000", "134752.266000", "134752.268000", "134752.271000", "134752.273000", "134752.276000", "134752.278000", "134752.281000", "134752.283000", "134752.286000", "134752.288000", "134752.291000", "134752.293000", "134752.296000", "134752.299000", "134752.301000", "134752.304000", "134752.306000", "134752.309000", "134832.260000", "134832.263000", "134832.266000", "134832.268000", "134832.271000", "134832.273000", "134832.276000", "134832.278000", "134832.281000", "134832.284000", "134832.286000", "134832.289000", "134832.291000", "134832.294000", "134832.296000", "134832.299000", "134832.301000", "134832.304000", "134832.306000", "134832.309000", "134912.260000", "134912.263000", "134912.266000", "134912.268000", "134912.271000", "134912.278000", "134912.280000", "134912.283000", "134912.286000", "134912.288000", "134912.291000", "134912.293000", "134912.296000", "134912.298000", "134912.301000", "134912.303000", "134912.306000", "134912.309000", "134912.311000", "134912.314000", "134952.261000", "134952.269000", "134952.272000", "134952.274000", "134952.277000", "134952.279000", "134952.282000", "134952.284000", "134952.287000", "134952.289000", "134952.292000", "134952.295000", "134952.297000", "134952.300000", "134952.302000", "134952.305000", "134952.307000", "134952.310000", "134952.312000", "134952.315000", "135032.260000", "135032.263000", "135032.266000", "135032.268000", "135032.271000", "135032.273000", "135032.276000", "135032.278000", "135032.281000", "135032.284000", "135032.286000", "135032.289000", "135032.291000", "135032.294000", "135032.296000", "135032.299000", "135032.302000", "135032.304000", "135032.321000", "135032.323000", "135112.261000", "135112.263000", "135112.266000", "135112.269000", "135112.271000", "135112.274000", "135112.276000", "135112.279000", "135112.281000", "135112.284000", "135112.286000", "135112.289000", "135112.291000", "135112.294000", "135112.296000", "135112.299000", "135112.301000", "135112.304000", "135112.306000", "135112.309000", "135152.262000", "135152.264000", "135152.267000", "135152.270000", "135152.272000", "135152.275000", "135152.277000", "135152.280000", "135152.282000", "135152.285000", "135152.288000", "135152.290000", "135152.293000", "135152.295000", "135152.298000", "135152.300000", "135152.303000", "135152.305000", "135152.308000", "135152.310000", "135232.260000", "135232.263000", "135232.266000", "135232.268000", "135232.271000", "135232.273000", "135232.276000", "135232.282000", "135232.284000", "135232.287000", "135232.289000", "135232.292000", "135232.294000", "135232.297000", "135232.300000", "135232.302000", "135232.305000", "135232.307000", "135232.310000", "135232.312000", "135312.261000", "135312.263000", "135312.266000", "135312.268000", "135312.271000", "135312.273000", "135312.276000", "135312.279000", "135312.281000", "135312.284000", "135312.286000", "135312.289000", "135312.291000", "135312.294000", "135312.296000", "135312.299000", "135312.301000", "135312.304000", "135312.306000", "135312.309000", "135352.261000", "135352.263000", "135352.266000", "135352.269000", "135352.271000", "135352.274000", "135352.276000", "135352.279000", "135352.281000", "135352.284000", "135352.286000", "135352.289000", "135352.291000", "135352.294000", "135352.296000", "135352.299000", "135352.302000", "135352.304000", "135352.307000", "135352.309000", "135432.261000", "135432.264000", "135432.267000", "135432.269000", "135432.272000", "135432.274000", "135432.277000", "135432.279000", "135432.282000", "135432.285000", "135432.287000", "135432.290000", "135432.292000", "135432.295000", "135432.297000", "135432.300000", "135432.302000", "135432.305000", "135432.307000", "135432.310000", "135512.261000", "135512.264000", "135512.266000", "135512.269000", "135512.271000", "135512.274000", "135512.276000", "135512.279000", "135512.281000", "135512.284000", "135512.287000", "135512.289000", "135512.292000", "135512.294000", "135512.297000", "135512.299000", "135512.302000", "135512.305000", "135512.307000", "135512.310000", "135552.261000", "135552.263000", "135552.266000", "135552.269000", "135552.271000", "135552.274000", "135552.276000", "135552.279000", "135552.281000", "135552.284000", "135552.286000", "135552.289000", "135552.292000", "135552.294000", "135552.297000", "135552.299000", "135552.302000", "135552.304000", "135552.307000", "135552.309000", "135632.262000", "135632.264000", "135632.267000", "135632.270000", "135632.272000", "135632.275000", "135632.277000", "135632.280000", "135632.282000", "135632.285000", "135632.288000", "135632.290000", "135632.293000", "135632.295000", "135632.298000", "135632.300000", "135632.303000", "135632.306000", "135632.321000", "135632.324000", "135712.261000", "135712.264000", "135712.266000", "135712.269000", "135712.271000", "135712.274000", "135712.276000", "135712.279000", "135712.281000", "135712.284000", "135712.286000", "135712.289000", "135712.292000", "135712.294000", "135712.297000", "135712.299000", "135712.302000", "135712.304000", "135712.307000", "135712.309000", "135752.261000", "135752.263000", "135752.266000", "135752.269000", "135752.271000", "135752.274000", "135752.276000", "135752.279000", "135752.281000", "135752.284000", "135752.287000", "135752.289000", "135752.292000", "135752.294000", "135752.297000", "135752.299000", "135752.302000", "135752.304000", "135752.307000", "135752.309000", "135832.261000", "135832.263000", "135832.266000", "135832.268000", "135832.271000", "135832.274000", "135832.276000", "135832.279000", "135832.281000", "135832.284000", "135832.286000", "135832.289000", "135832.291000", "135832.294000", "135832.296000", "135832.299000", "135832.301000", "135832.304000", "135832.307000", "135832.309000", "135912.262000", "135912.264000", "135912.267000", "135912.269000", "135912.272000", "135912.274000", "135912.277000", "135912.279000", "135912.282000", "135912.284000", "135912.287000", "135912.290000", "135912.292000", "135912.295000", "135912.297000", "135912.300000", "135912.302000", "135912.305000", "135912.307000", "135912.310000", "135952.261000", "135952.263000", "135952.266000", "135952.268000", "135952.271000", "135952.273000", "135952.276000", "135952.278000", "135952.281000", "135952.284000", "135952.286000", "135952.289000", "135952.291000", "135952.294000", "135952.296000", "135952.299000", "135952.301000", "135952.304000", "135952.306000", "135952.309000", "140032.260000", "140032.263000", "140032.266000", "140032.268000", "140032.271000", "140032.273000", "140032.276000", "140032.278000", "140032.281000", "140032.284000", "140032.286000", "140032.289000", "140032.291000", "140032.294000", "140032.296000", "140032.299000", "140032.301000", "140032.304000", "140032.306000", "140032.309000", "140112.262000", "140112.264000", "140112.267000", "140112.270000", "140112.272000", "140112.275000", "140112.277000", "140112.280000", "140112.282000", "140112.285000", "140112.287000", "140112.290000", "140112.292000", "140112.295000", "140112.298000", "140112.300000", "140112.303000", "140112.305000", "140112.308000", "140112.310000", "140146.891000", "140146.894000", "140146.896000", "140146.903000", "140146.909000", "140146.912000", "140146.915000", "140146.918000", "140146.921000", "140146.923000", "140146.926000", "140146.929000", "140146.931000", "140146.934000", "140146.936000", "140146.939000", "140146.941000"],
