{
  "AcquisitionMatrixPE": 96,
  "AcquisitionNumber": 1,
  "AcquisitionTime": "10:42:45.175000",
  "BandwidthPerPixelPhaseEncode": 20.425,
  "BaseResolution": 96,
  "BodyPartExamined": "BRAIN",
  "CoilCombinationMethod": "Sum of Squares",
  "ConsistencyInfo": "N4_VE11C_LATEST_20160120",
  "ConversionSoftware": "dcm2niix",
  "ConversionSoftwareVersion": "v1.0.20211006",
  "DerivedVendorReportedEchoSpacing": 0.000509996,
  "DeviceSerialNumber": "166054",
  "DwellTime": 2.3e-06,
  "EchoTime": 0.03,
  "EchoTrainLength": 96,
  "EffectiveEchoSpacing": 0.000509996,
  "FlipAngle": 75,
  "HeudiconvVersion": "0.11.3+d20220512",
  "ImageComments": "Unaliased MB2/PE2",
  "ImageOrientationPatientDICOM": [0.999946, 0.00616134, 0.00834744, -0.00261786, 0.928371, -0.371645],
  "ImageOrientationText": "Tra>Cor(-21.8)>Sag(0.6)",
  "ImageType": [
    "ORIGINAL",
    "PRIMARY",
    "M",
    "MB",
    "ND",
    "MOSAIC"
],
  "ImagingFrequency": 123.26,
  "InPlanePhaseEncodingDirectionDICOM": "COL",
  "InstitutionAddress": "Street StreetNo,City,District,IL,ZIP",
  "InstitutionName": "Weizmann Institute",
  "InstitutionalDepartmentName": "Department",
  "MRAcquisitionType": "2D",
  "MagneticFieldStrength": 3,
  "Manufacturer": "Siemens",
  "ManufacturersModelName": "Prisma",
  "MatrixCoilMode": "SENSE",
  "Modality": "MR",
  "MultibandAccelerationFactor": 2,
  "PartialFourier": 1,
  "PatientPosition": "HFS",
  "PercentPhaseFOV": 100,
  "PercentSampling": 100,
  "PhaseEncodingDirection": "j-",
  "PhaseEncodingSteps": 96,
  "PhaseResolution": 1,
  "PixelBandwidth": 2265,
  "ProcedureStepDescription": "Weizmann^Sobel",
  "ProtocolName": "EPI_PSAP_iso2.5",
  "PulseSequenceDetails": "%CustomerSeq%\\cmrr_mbep2d_bold",
  "ReceiveCoilActiveElements": "HEA;HEP",
  "ReceiveCoilName": "Head_32",
  "ReconMatrixPE": 96,
  "RepetitionTime": 2,
  "SAR": 0.0970217,
  "ScanOptions": "FS",
  "ScanningSequence": "EP",
  "SequenceName": "epfid2d1_96",
  "SequenceVariant": "SK\\SS",
  "SeriesDescription": "EPI_PSAP_iso2.5",
  "SeriesNumber": 6,
  "ShimSetting": [5907, -4025, -1892, 407, 82, 45, 106, 29],
  "SliceThickness": 2.5,
  "SliceTiming": [0, 0.9175, 1.8375, 0.7775, 1.695, 0.635, 1.555, 0.495, 1.4125, 0.3525, 1.2725, 0.21, 1.13, 0.07, 0.9875, 1.9075, 0.8475, 1.7675, 0.705, 1.625, 0.565, 1.4825, 0.4225, 1.3425, 0.2825, 1.2, 0.14, 1.06, 0, 0.9175, 1.8375, 0.7775, 1.695, 0.635, 1.555, 0.495, 1.4125, 0.3525, 1.2725, 0.21, 1.13, 0.07, 0.9875, 1.9075, 0.8475, 1.7675, 0.705, 1.625, 0.565, 1.4825, 0.4225, 1.3425, 0.2825, 1.2, 0.14, 1.06],
  "SoftwareVersions": "syngo MR E11",
  "SpacingBetweenSlices": 2.5,
  "StationName": "AWP166054",
  "TaskName": "PSAP",
  "TotalReadoutTime": 0.0484496,
  "TxRefAmp": 234.4,
  "VendorReportedEchoSpacing": 0.00051,
  "WipMemBlock": "5c56a12a-de57-42da-840d-7cb91be98c9c||Sequence: R016 ve11c/master r/e634e98; Dec 19 2017 11:00:25 by eja",
  "dcmmeta_affine": [
    [-2.4998655319213867, -0.006544654723256826, 0.02509838528931141, 120.95709991455078],
    [-0.015403340570628643, 2.320927858352661, -0.9290082454681396, -70.37210845947266],
    [0.02086860127747059, 0.9291129112243652, 2.32084321975708, -115.13590240478516],
    [0.0, 0.0, 0.0, 1.0]
],
  "dcmmeta_reorient_transform": [
    [0.0, -1.0, 0.0, 95.0],
    [1.0, 0.0, 0.0, 0.0],
    [0.0, 0.0, 1.0, 0.0],
    [0.0, 0.0, 0.0, 1.0]
],
  "dcmmeta_shape": [96, 96, 56, 547],
  "dcmmeta_slice_dim": 2,
  "dcmmeta_version": 0.6,
  "global": {
    "const": {
      "AcquisitionMatrix": [96, 0, 0, 96],
      "AngioFlag": "N",
      "BitsAllocated": 16,
      "BitsStored": 16,
      "BodyPartExamined": "BRAIN",
      "Columns": 768,
      "EchoNumbers": 1,
      "EchoTime": 30.0,
      "EchoTrainLength": 96,
      "FlipAngle": 75.0,
      "HighBit": 15,
      "ImageOrientationPatient": [0.99994617763527, 0.00616133622134, 0.00834744083978, -0.0026178618741, 0.9283711685555, -0.3716451535996],
      "ImagePositionPatient": [-958.0911392798, -935.12334585164, 278.29990001362],
      "ImageType": [
        "ORIGINAL",
        "PRIMARY",
        "M",
        "MB",
        "ND",
        "MOSAIC"
],
      "ImagedNucleus": "1H",
      "ImagingFrequency": 123.260252,
      "InPlanePhaseEncodingDirection": "COL",
      "MRAcquisitionType": "2D",
      "MagneticFieldStrength": 3.0,
      "Manufacturer": "SIEMENS",
      "ManufacturerModelName": "Prisma",
      "Modality": "MR",
      "NumberOfAverages": 1.0,
      "NumberOfPhaseEncodingSteps": 96,
      "PercentPhaseFieldOfView": 100.0,
      "PercentSampling": 100.0,
      "PerformedProcedureStepStartTime": "101317.054000",
      "PhotometricInterpretation": "MONOCHROME2",
      "PixelBandwidth": 2265.0,
      "PixelRepresentation": 0,
      "PixelSpacing": [2.5, 2.5],
      "ProtocolName": "EPI_PSAP_iso2.5",
      "RepetitionTime": 2000.0,
      "Rows": 768,
      "SAR": 0.09702173613376,
      "SamplesPerPixel": 1,
      "ScanOptions": "FS",
      "ScanningSequence": "EP",
      "SequenceName": "epfid2d1_96",
      "SequenceVariant": [
        "SK",
        "SS"
],
      "SeriesDescription": "EPI_PSAP_iso2.5",
      "SeriesNumber": 6,
      "SeriesTime": "104330.520000",
      "SliceLocation": -79.520117024369,
      "SliceThickness": 2.5,
      "SmallestImagePixelValue": 0,
      "SoftwareVersions": "syngo MR E11",
      "SpacingBetweenSlices": 2.4999999771525,
      "SpecificCharacterSet": "ISO_IR 100",
      "StudyID": "2",
      "StudyTime": "101317.003000",
      "TransmitCoilName": "Body",
      "VariableFlipAngleFlag": "N",
      "WindowCenterWidthExplanation": "Algo1",
      "dBdt": 0.0},
    "slices": {}
  },
  "time": {
    "samples": {
      "AcquisitionNumber": [1, 2, 3, 4, 5, 6, 7, 8, 9, 10, 11, 12, 13, 14, 15, 16, 17, 18, 19, 20, 21, 22, 23, 24, 25, 26, 27, 28, 29, 30, 31, 32, 33, 34, 35, 36, 37, 38, 39, 40, 41, 42, 43, 44, 45, 46, 47, 48, 49, 50, 51, 52, 53, 54, 55, 56, 57, 58, 59, 60, 61, 62, 63, 64, 65, 66, 67, 68, 69, 70, 71, 72, 73, 74, 75, 76, 77, 78, 79, 80, 81, 82, 83, 84, 85, 86, 87, 88, 89, 90, 91, 92, 93, 94, 95, 96, 97, 98, 99, 100, 101, 102, 103, 104, 105, 106, 107, 108, 109, 110, 111, 112, 113, 114, 115, 116, 117, 118, 119, 120, 121, 122, 123, 124, 125, 126, 127, 128, 129, 130, 131, 132, 133, 134, 135, 136, 137, 138, 139, 140, 141, 142, 143, 144, 145, 146, 147, 148, 149, 150, 151, 152, 153, 154, 155, 156, 157, 158, 159, 160, 161, 162, 163, 164, 165, 166, 167, 168, 169, 170, 171, 172, 173, 174, 175, 176, 177, 178, 179, 180, 181, 182, 183, 184, 185, 186, 187, 188, 189, 190, 191, 192, 193, 194, 195, 196, 197, 198, 199, 200, 201, 202, 203, 204, 205, 206, 207, 208, 209, 210, 211, 212, 213, 214, 215, 216, 217, 218, 219, 220, 221, 222, 223, 224, 225, 226, 227, 228, 229, 230, 231, 232, 233, 234, 235, 236, 237, 238, 239, 240, 241, 242, 243, 244, 245, 246, 247, 248, 249, 250, 251, 252, 253, 254, 255, 256, 257, 258, 259, 260, 261, 262, 263, 264, 265, 266, 267, 268, 269, 270, 271, 272, 273, 274, 275, 276, 277, 278, 279, 280, 281, 282, 283, 284, 285, 286, 287, 288, 289, 290, 291, 292, 293, 294, 295, 296, 297, 298, 299, 300, 301, 302, 303, 304, 305, 306, 307, 308, 309, 310, 311, 312, 313, 314, 315, 316, 317, 318, 319, 320, 321, 322, 323, 324, 325, 326, 327, 328, 329, 330, 331, 332, 333, 334, 335, 336, 337, 338, 339, 340, 341, 342, 343, 344, 345, 346, 347, 348, 349, 350, 351, 352, 353, 354, 355, 356, 357, 358, 359, 360, 361, 362, 363, 364, 365, 366, 367, 368, 369, 370, 371, 372, 373, 374, 375, 376, 377, 378, 379, 380, 381, 382, 383, 384, 385, 386, 387, 388, 389, 390, 391, 392, 393, 394, 395, 396, 397, 398, 399, 400, 401, 402, 403, 404, 405, 406, 407, 408, 409, 410, 411, 412, 413, 414, 415, 416, 417, 418, 419, 420, 421, 422, 423, 424, 425, 426, 427, 428, 429, 430, 431, 432, 433, 434, 435, 436, 437, 438, 439, 440, 441, 442, 443, 444, 445, 446, 447, 448, 449, 450, 451, 452, 453, 454, 455, 456, 457, 458, 459, 460, 461, 462, 463, 464, 465, 466, 467, 468, 469, 470, 471, 472, 473, 474, 475, 476, 477, 478, 479, 480, 481, 482, 483, 484, 485, 486, 487, 488, 489, 490, 491, 492, 493, 494, 495, 496, 497, 498, 499, 500, 501, 502, 503, 504, 505, 506, 507, 508, 509, 510, 511, 512, 513, 514, 515, 516, 517, 518, 519, 520, 521, 522, 523, 524, 525, 526, 527, 528, 529, 530, 531, 532, 533, 534, 535, 536, 537, 538, 539, 540, 541, 542, 543, 544, 545, 546, 547],
      "AcquisitionTime": ["104245.175000", "104247.175000", "104249.175000", "104251.175000", "104253.175000", "104255.175000", "104257.175000", "104259.175000", "104301.175000", "104303.175000", "104305.175000", "104307.175000", "104309.175000", "104311.175000", "104313.175000", "104315.175000", "104317.175000", "104319.175000", "104321.175000", "104323.175000", "104325.175000", "104327.175000", "104329.175000", "104331.175000", "104333.175000", "104335.175000", "104337.175000", "104339.175000", "104341.175000", "104343.175000", "104345.175000", "104347.175000", "104349.175000", "104351.175000", "104353.175000", "104355.175000", "104357.175000", "104359.175000", "104401.175000", "104403.175000", "104405.175000", "104407.175000", "104409.175000", "104411.175000", "104413.175000", "104415.175000", "104417.175000", "104419.175000", "104421.175000", "104423.175000", "104425.175000", "104427.175000", "104429.175000", "104431.175000", "104433.175000", "104435.175000", "104437.175000", "104439.175000", "104441.175000", "104443.175000", "104445.175000", "104447.175000", "104449.175000", "104451.175000", "104453.175000", "104455.175000", "104457.175000", "104459.175000", "104501.175000", "104503.175000", "104505.175000", "104507.175000", "104509.175000", "104511.175000", "104513.175000", "104515.175000", "104517.175000", "104519.175000", "104521.175000", "104523.175000", "104525.175000", "104527.175000", "104529.175000", "104531.175000", "104533.175000", "104535.175000", "104537.175000", "104539.175000", "104541.175000", "104543.175000", "104545.175000", "104547.175000", "104549.175000", "104551.175000", "104553.175000", "104555.175000", "104557.175000", "104559.175000", "104601.175000", "104603.175000", "104605.175000", "104607.175000", "104609.175000", "104611.175000", "104613.175000", "104615.175000", "104617.175000", "104619.175000", "104621.175000", "104623.175000", "104625.175000", "104627.175000", "104629.175000", "104631.175000", "104633.175000", "104635.175000", "104637.175000", "104639.175000", "104641.175000", "104643.175000", "104645.175000", "104647.175000", "104649.175000", "104651.175000", "104653.175000", "104655.175000", "104657.175000", "104659.175000", "104701.175000", "104703.175000", "104705.175000", "104707.175000", "104709.175000", "104711.175000", "104713.175000", "104715.175000", "104717.175000", "104719.175000", "104721.175000", "104723.175000", "104725.175000", "104727.175000", "104729.175000", "104731.175000", "104733.175000", "104735.175000", "104737.175000", "104739.175000", "104741.175000", "104743.175000", "104745.175000", "104747.175000", "104749.175000", "104751.175000", "104753.175000", "104755.175000", "104757.175000", "104759.175000", "104801.175000", "104803.175000", "104805.175000", "104807.175000", "104809.175000", "104811.175000", "104813.175000", "104815.175000", "104817.175000", "104819.175000", "104821.175000", "104823.175000", "104825.175000", "104827.175000", "104829.175000", "104831.175000", "104833.175000", "104835.175000", "104837.175000", "104839.175000", "104841.175000", "104843.175000", "104845.175000", "104847.175000", "104849.175000", "104851.175000", "104853.175000", "104855.175000", "104857.175000", "104859.175000", "104901.175000", "104903.175000", "104905.175000", "104907.175000", "104909.175000", "104911.175000", "104913.175000", "104915.175000", "104917.175000", "104919.175000", "104921.175000", "104923.175000", "104925.175000", "104927.175000", "104929.175000", "104931.175000", "104933.175000", "104935.175000", "104937.175000", "104939.175000", "104941.175000", "104943.175000", "104945.175000", "104947.175000", "104949.175000", "104951.175000", "104953.175000", "104955.175000", "104957.175000", "104959.175000", "105001.175000", "105003.175000", "105005.175000", "105007.175000", "105009.175000", "105011.175000", "105013.175000", "105015.175000", "105017.175000", "105019.175000", "105021.175000", "105023.175000", "105025.175000", "105027.175000", "105029.175000", "105031.175000", "105033.175000", "105035.175000", "105037.175000", "105039.175000", "105041.175000", "105043.175000", "105045.175000", "105047.175000", "105049.175000", "105051.175000", "105053.175000", "105055.175000", "105057.175000", "105059.175000", "105101.175000", "105103.175000", "105105.175000", "105107.175000", "105109.175000", "105111.175000", "105113.175000", "105115.175000", "105117.175000", "105119.175000", "105121.175000", "105123.175000", "105125.175000", "105127.175000", "105129.175000", "105131.175000", "105133.175000", "105135.175000", "105137.175000", "105139.175000", "105141.175000", "105143.175000", "105145.175000", "105147.175000", "105149.175000", "105151.175000", "105153.175000", "105155.175000", "105157.175000", "105159.175000", "105201.175000", "105203.175000", "105205.175000", "105207.175000", "105209.175000", "105211.175000", "105213.175000", "105215.175000", "105217.175000", "105219.175000", "105221.175000", "105223.175000", "105225.175000", "105227.175000", "105229.175000", "105231.175000", "105233.175000", "105235.175000", "105237.175000", "105239.175000", "105241.175000", "105243.175000", "105245.175000", "105247.175000", "105249.175000", "105251.175000", "105253.175000", "105255.175000", "105257.175000", "105259.175000", "105301.175000", "105303.175000", "105305.175000", "105307.175000", "105309.175000", "105311.175000", "105313.175000", "105315.175000", "105317.175000", "105319.175000", "105321.175000", "105323.175000", "105325.175000", "105327.175000", "105329.175000", "105331.175000", "105333.175000", "105335.175000", "105337.175000", "105339.175000", "105341.175000", "105343.175000", "105345.175000", "105347.175000", "105349.175000", "105351.175000", "105353.175000", "105355.175000", "105357.175000", "105359.175000", "105401.175000", "105403.175000", "105405.175000", "105407.175000", "105409.175000", "105411.175000", "105413.175000", "105415.175000", "105417.175000", "105419.175000", "105421.175000", "105423.175000", "105425.175000", "105427.175000", "105429.175000", "105431.175000", "105433.175000", "105435.175000", "105437.175000", "105439.175000", "105441.175000", "105443.175000", "105445.175000", "105447.175000", "105449.175000", "105451.175000", "105453.175000", "105455.175000", "105457.175000", "105459.175000", "105501.175000", "105503.175000", "105505.175000", "105507.175000", "105509.175000", "105511.175000", "105513.175000", "105515.175000", "105517.175000", "105519.175000", "105521.175000", "105523.175000", "105525.175000", "105527.175000", "105529.175000", "105531.175000", "105533.175000", "105535.175000", "105537.175000", "105539.175000", "105541.175000", "105543.175000", "105545.175000", "105547.175000", "105549.175000", "105551.175000", "105553.175000", "105555.175000", "105557.175000", "105559.175000", "105601.175000", "105603.175000", "105605.175000", "105607.175000", "105609.175000", "105611.175000", "105613.175000", "105615.175000", "105617.175000", "105619.175000", "105621.175000", "105623.175000", "105625.175000", "105627.175000", "105629.175000", "105631.175000", "105633.175000", "105635.175000", "105637.175000", "105639.175000", "105641.175000", "105643.175000", "105645.175000", "105647.175000", "105649.175000", "105651.175000", "105653.175000", "105655.175000", "105657.175000", "105659.175000", "105701.175000", "105703.175000", "105705.175000", "105707.175000", "105709.175000", "105711.175000", "105713.175000", "105715.175000", "105717.175000", "105719.175000", "105721.175000", "105723.175000", "105725.175000", "105727.175000", "105729.175000", "105731.175000", "105733.175000", "105735.175000", "105737.175000", "105739.175000", "105741.175000", "105743.175000", "105745.175000", "105747.175000", "105749.175000", "105751.175000", "105753.175000", "105755.175000", "105757.175000", "105759.175000", "105801.175000", "105803.175000", "105805.175000", "105807.175000", "105809.175000", "105811.175000", "105813.175000", "105815.175000", "105817.175000", "105819.175000", "105821.175000", "105823.175000", "105825.175000", "105827.175000", "105829.175000", "105831.175000", "105833.175000", "105835.175000", "105837.175000", "105839.175000", "105841.175000", "105843.175000", "105845.175000", "105847.175000", "105849.175000", "105851.175000", "105853.175000", "105855.175000", "105857.175000", "105859.175000", "105901.175000", "105903.175000", "105905.175000", "105907.175000", "105909.175000", "105911.175000", "105913.175000", "105915.175000", "105917.175000", "105919.175000", "105921.175000", "105923.175000", "105925.175000", "105927.175000", "105929.175000", "105931.175000", "105933.175000", "105935.175000", "105937.175000", "105939.175000", "105941.175000", "105943.175000", "105945.175000", "105947.175000", "105949.175000", "105951.175000", "105953.175000", "105955.175000", "105957.175000", "105959.175000", "110001.175000", "110003.175000", "110005.175000", "110007.175000", "110009.175000", "110011.175000", "110013.175000", "110015.175000", "110017.175000", "110019.175000", "110021.175000", "110023.175000", "110025.175000", "110027.175000", "110029.175000", "110031.175000", "110033.175000", "110035.175000", "110037.175000", "110039.175000", "110041.175000", "110043.175000", "110045.175000", "110047.175000", "110049.175000", "110051.175000", "110053.175000", "110055.175000", "110057.175000"],
      "ContentTime": ["104330.522000", "104330.525000", "104330.527000", "104330.530000", "104330.532000", "104330.535000", "104330.548000", "104330.551000", "104330.560000", "104330.563000", "104330.565000", "104330.568000", "104330.579000", "104330.581000", "104330.584000", "104330.586000", "104330.589000", "104330.591000", "104330.594000", "104330.596000", "104330.599000", "104330.601000", "104410.485000", "104410.487000", "104410.490000", "104410.492000", "104410.495000", "104410.497000", "104410.500000", "104410.502000", "104410.505000", "104410.507000", "104410.510000", "104410.512000", "104410.515000", "104410.517000", "104410.520000", "104410.522000", "104410.525000", "104410.527000", "104410.530000", "104410.533000", "104450.486000", "104450.488000", "104450.491000", "104450.493000", "104450.496000", "104450.507000", "104450.509000", "104450.512000", "104450.514000", "104450.517000", "104450.519000", "104450.522000", "104450.524000", "104450.527000", "104450.529000", "104450.532000", "104450.534000", "104450.537000", "104450.539000", "104450.542000", "104530.485000", "104530.487000", "104530.490000", "104530.492000", "104530.495000", "104530.497000", "104530.500000", "104530.502000", "104530.505000", "104530.508000", "104530.510000", "104530.513000", "104530.515000", "104530.518000", "104530.520000", "104530.523000", "104530.525000", "104530.528000", "104530.530000", "104530.541000", "104610.484000", "104610.487000", "104610.490000", "104610.492000", "104610.495000", "104610.497000", "104610.500000", "104610.502000", "104610.505000", "104610.507000", "104610.510000", "104610.512000", "104610.515000", "104610.517000", "104610.520000", "104610.522000", "104610.525000", "104610.528000", "104610.530000", "104610.532000", "104650.484000", "104650.487000", "104650.490000", "104650.492000", "104650.495000", "104650.497000", "104650.500000", "104650.502000", "104650.505000", "104650.508000", "104650.510000", "104650.513000", "104650.515000", "104650.518000", "104650.520000", "104650.523000", "104650.525000", "104650.528000", "104650.530000", "104650.533000", "104730.484000", "104730.487000", "104730.490000", "104730.492000", "104730.495000", "104730.497000", "104730.500000", "104730.502000", "104730.505000", "104730.507000", "104730.510000", "104730.512000", "104730.515000", "104730.517000", "104730.520000", "104730.522000", "104730.525000", "104730.527000", "104730.530000", "104730.532000", "104810.484000", "104810.487000", "104810.490000", "104810.493000", "104810.495000", "104810.498000", "104810.500000", "104810.503000", "104810.505000", "104810.508000", "104810.511000", "104810.513000", "104810.516000", "104810.518000", "104810.521000", "104810.523000", "104810.526000", "104810.529000", "104810.531000", "104810.534000", "104850.485000", "104850.487000", "104850.490000", "104850.492000", "104850.495000", "104850.498000", "104850.500000", "104850.503000", "104850.505000", "104850.508000", "104850.510000", "104850.513000", "104850.516000", "104850.518000", "104850.521000", "104850.523000", "104850.526000", "104850.528000", "104850.531000", "104850.533000", "104930.486000", "104930.488000", "104930.491000", "104930.493000", "104930.496000", "104930.499000", "104930.501000", "104930.504000", "104930.506000", "104930.509000", "104930.511000", "104930.514000", "104930.516000", "104930.519000", "104930.521000", "104930.524000", "104930.526000", "104930.529000", "104930.531000", "104930.534000", "105010.485000", "105010.487000", "105010.490000", "105010.493000", "105010.495000", "105010.498000", "105010.501000", "105010.503000", "105010.506000", "105010.508000", "105010.511000", "105010.514000", "105010.516000", "105010.519000", "105010.521000", "105010.524000", "105010.526000", "105010.540000", "105010.542000", "105010.545000", "105030.485000", "105030.487000", "105030.490000", "105030.493000", "105030.495000", "105030.498000", "105030.500000", "105030.503000", "105030.505000", "105030.508000", "105110.484000", "105110.488000", "105110.490000", "105110.493000", "105110.495000", "105110.498000", "105110.500000", "105110.503000", "105110.505000", "105110.508000", "105110.511000", "105110.513000", "105110.516000", "105110.518000", "105110.521000", "105110.523000", "105110.526000", "105110.529000", "105110.531000", "105110.534000", "105150.485000", "105150.488000", "105150.491000", "105150.494000", "105150.496000", "105150.499000", "105150.501000", "105150.504000", "105150.506000", "105150.509000", "105150.512000", "105150.514000", "105150.517000", "105150.519000", "105150.522000", "105150.524000", "105150.527000", "105150.530000", "105150.532000", "105150.535000", "105230.484000", "105230.487000", "105230.490000", "105230.493000", "105230.495000", "105230.498000", "105230.500000", "105230.503000", "105230.505000", "105230.508000", "105230.511000", "105230.513000", "105230.516000", "105230.519000", "105230.521000", "105230.524000", "105230.526000", "105230.529000", "105230.531000", "105230.534000", "105310.484000", "105310.487000", "105310.490000", "105310.493000", "105310.495000", "105310.498000", "105310.500000", "105310.503000", "105310.505000", "105310.508000", "105310.510000", "105310.513000", "105310.516000", "105310.518000", "105310.521000", "105310.523000", "105310.526000", "105310.529000", "105310.531000", "105310.534000", "105350.484000", "105350.487000", "105350.490000", "105350.493000", "105350.495000", "105350.498000", "105350.500000", "105350.503000", "105350.505000", "105350.508000", "105350.511000", "105350.513000", "105350.516000", "105350.518000", "105350.521000", "105350.524000", "105350.526000", "105350.529000", "105350.531000", "105350.534000", "105430.485000", "105430.488000", "105430.490000", "105430.493000", "105430.495000", "105430.498000", "105430.501000", "105430.503000", "105430.506000", "105430.508000", "105430.511000", "105430.513000", "105430.516000", "105430.519000", "105430.521000", "105430.524000", "105430.526000", "105430.529000", "105430.531000", "105430.534000", "105510.485000", "105510.488000", "105510.490000", "105510.493000", "105510.496000", "105510.498000", "105510.501000", "105510.503000", "105510.506000", "105510.509000", "105510.511000", "105510.514000", "105510.516000", "105510.524000", "105510.526000", "105510.529000", "105510.531000", "105510.534000", "105510.537000", "105510.539000", "105550.485000", "105550.488000", "105550.490000", "105550.493000", "105550.495000", "105550.498000", "105550.500000", "105550.503000", "105550.506000", "105550.508000", "105550.511000", "105550.513000", "105550.516000", "105550.519000", "105550.521000", "105550.524000", "105550.526000", "105550.529000", "105550.531000", "105550.534000", "105630.486000", "105630.489000", "105630.491000", "105630.494000", "105630.496000", "105630.499000", "105630.501000", "105630.504000", "105630.507000", "105630.509000", "105630.512000", "105630.514000", "105630.517000", "105630.519000", "105630.522000", "105630.525000", "105630.527000", "105630.530000", "105630.533000", "105630.535000", "105710.485000", "105710.488000", "105710.490000", "105710.493000", "105710.495000", "105710.498000", "105710.500000", "105710.503000", "105710.506000", "105710.508000", "105710.511000", "105710.513000", "105710.516000", "105710.519000", "105710.521000", "105710.524000", "105710.526000", "105710.529000", "105710.532000", "105710.534000", "105750.485000", "105750.487000", "105750.490000", "105750.493000", "105750.495000", "105750.498000", "105750.500000", "105750.503000", "105750.505000", "105750.508000", "105750.511000", "105750.513000", "105750.516000", "105750.518000", "105750.521000", "105750.523000", "105750.526000", "105750.529000", "105750.531000", "105750.534000", "105830.485000", "105830.488000", "105830.490000", "105830.493000", "105830.496000", "105830.498000", "105830.501000", "105830.503000", "105830.506000", "105830.509000", "105830.511000", "105830.514000", "105830.516000", "105830.519000", "105830.522000", "105830.524000", "105830.527000", "105830.530000", "105830.532000", "105830.535000", "105910.485000", "105910.488000", "105910.490000", "105910.493000", "105910.495000", "105910.498000", "105910.501000", "105910.503000", "105910.506000", "105910.508000", "105910.511000", "105910.513000", "105910.516000", "105910.519000", "105910.521000", "105910.524000", "105910.526000", "105910.529000", "105910.532000", "105910.534000", "105950.484000", "105950.487000", "105950.490000", "105950.493000", "105950.495000", "105950.498000", "105950.500000", "105950.503000", "105950.505000", "105950.508000", "105950.511000", "105950.513000", "105950.516000", "105950.518000", "105950.521000", "105950.523000", "105950.526000", "105950.529000", "105950.531000", "105950.534000", "110030.485000", "110030.488000", "110030.490000", "110030.493000", "110030.495000", "110030.498000", "110030.500000", "110030.503000", "110030.506000", "110030.508000", "110030.511000", "110030.513000", "110030.516000", "110030.519000", "110030.521000", "110030.524000", "110030.526000", "110030.529000", "110030.532000", "110030.534000", "110101.396000", "110101.399000", "110101.402000", "110101.404000", "110101.407000", "110101.410000", "110101.412000", "110101.415000", "110101.418000", "110101.420000", "110101.423000", "110101.425000", "110101.428000", "110101.431000", "110101.433000"],
