{
  "AcquisitionMatrixPE": 96,
  "AcquisitionNumber": 1,
  "AcquisitionTime": "11:10:58.282500",
  "BandwidthPerPixelPhaseEncode": 20.425,
  "BaseResolution": 96,
  "BodyPartExamined": "BRAIN",
  "CoilCombinationMethod": "Sum of Squares",
  "ConsistencyInfo": "N4_VE11C_LATEST_20160120",
  "ConversionSoftware": "dcm2niix",
  "ConversionSoftwareVersion": "v1.0.20211006",
  "DerivedVendorReportedEchoSpacing": 0.000509996,
  "DeviceSerialNumber": "166054",
  "DwellTime": 2.3e-06,
  "EchoTime": 0.03,
  "EchoTrainLength": 96,
  "EffectiveEchoSpacing": 0.000509996,
  "FlipAngle": 75,
  "HeudiconvVersion": "0.11.3+d20220512",
  "ImageComments": "Unaliased MB2/PE2",
  "ImageOrientationPatientDICOM": [0.99937, 0.0353903, 0.00268729, -0.0312319, 0.912853, -0.407092],
  "ImageOrientationText": "Tra>Cor(-24.0)>Sag(1.0)",
  "ImageType": [
    "ORIGINAL",
    "PRIMARY",
    "M",
    "MB",
    "ND",
    "MOSAIC"
],
  "ImagingFrequency": 123.26,
  "InPlanePhaseEncodingDirectionDICOM": "COL",
  "InstitutionAddress": "Street StreetNo,City,District,IL,ZIP",
  "InstitutionName": "Weizmann Institute",
  "InstitutionalDepartmentName": "Department",
  "MRAcquisitionType": "2D",
  "MagneticFieldStrength": 3,
  "Manufacturer": "Siemens",
  "ManufacturersModelName": "Prisma",
  "MatrixCoilMode": "SENSE",
  "Modality": "MR",
  "MultibandAccelerationFactor": 2,
  "PartialFourier": 1,
  "PatientPosition": "HFS",
  "PercentPhaseFOV": 100,
  "PercentSampling": 100,
  "PhaseEncodingDirection": "j-",
  "PhaseEncodingSteps": 96,
  "PhaseResolution": 1,
  "PixelBandwidth": 2265,
  "ProcedureStepDescription": "Weizmann^Sobel",
  "ProtocolName": "EPI_PSAP_iso2.5",
  "PulseSequenceDetails": "%CustomerSeq%\\cmrr_mbep2d_bold",
  "ReceiveCoilActiveElements": "HEA;HEP",
  "ReceiveCoilName": "Head_32",
  "ReconMatrixPE": 96,
  "RepetitionTime": 2,
  "SAR": 0.10502,
  "ScanOptions": "FS",
  "ScanningSequence": "EP",
  "SequenceName": "epfid2d1_96",
  "SequenceVariant": "SK\\SS",
  "SeriesDescription": "EPI_PSAP_iso2.5",
  "SeriesNumber": 6,
  "ShimSetting": [5917, -3985, -1892, 268, 114, 79, -61, 23],
  "SliceThickness": 2.5,
  "SliceTiming": [0, 0.92, 1.84, 0.7775, 1.6975, 0.6375, 1.555, 0.495, 1.415, 0.355, 1.2725, 0.2125, 1.1325, 0.07, 0.99, 1.91, 0.85, 1.7675, 0.7075, 1.6275, 0.565, 1.485, 0.425, 1.345, 0.2825, 1.2025, 0.1425, 1.06, 0, 0.92, 1.84, 0.7775, 1.6975, 0.6375, 1.555, 0.495, 1.415, 0.355, 1.2725, 0.2125, 1.1325, 0.07, 0.99, 1.91, 0.85, 1.7675, 0.7075, 1.6275, 0.565, 1.485, 0.425, 1.345, 0.2825, 1.2025, 0.1425, 1.06],
  "SoftwareVersions": "syngo MR E11",
  "SpacingBetweenSlices": 2.5,
  "StationName": "AWP166054",
  "TaskName": "PSAP",
  "TotalReadoutTime": 0.0484496,
  "TxRefAmp": 250.5,
  "VendorReportedEchoSpacing": 0.00051,
  "WipMemBlock": "fc5f1737-fb1e-4fc6-a518-11778c1a159b||Sequence: R016 ve11c/master r/e634e98; Dec 19 2017 11:00:25 by eja",
  "dcmmeta_affine": [
    [-2.498424768447876, -0.07807968556880951, 0.042150575667619705, 121.69278717041016],
    [-0.08847583085298538, 2.282132387161255, -1.0168795585632324, -70.4532699584961],
    [0.006718222983181477, 1.0177305936813354, 2.2834577560424805, -81.75904846191406],
    [0.0, 0.0, 0.0, 1.0]
],
  "dcmmeta_reorient_transform": [
    [0.0, -1.0, 0.0, 95.0],
    [1.0, 0.0, 0.0, 0.0],
    [0.0, 0.0, 1.0, 0.0],
    [0.0, 0.0, 0.0, 1.0]
],
  "dcmmeta_shape": [96, 96, 56, 495],
  "dcmmeta_slice_dim": 2,
  "dcmmeta_version": 0.6,
  "global": {
    "const": {
      "AcquisitionMatrix": [96, 0, 0, 96],
      "AngioFlag": "N",
      "BitsAllocated": 16,
      "BitsStored": 16,
      "BodyPartExamined": "BRAIN",
      "Columns": 768,
      "EchoNumbers": 1,
      "EchoTime": 30.0,
      "EchoTrainLength": 96,
      "FlipAngle": 75.0,
      "HighBit": 15,
      "ImageOrientationPatient": [0.99936995291019, 0.03539033338205, 0.0026872892282, -0.0312318728261, 0.91285293885541, -0.407092228055],
      "ImagePositionPatient": [-927.51120805143, -942.87364953278, 354.62550793636],
      "ImageType": [
        "ORIGINAL",
        "PRIMARY",
        "M",
        "MB",
        "ND",
        "MOSAIC"
],
      "ImagedNucleus": "1H",
      "ImagingFrequency": 123.260235,
      "InPlanePhaseEncodingDirection": "COL",
      "MRAcquisitionType": "2D",
      "MagneticFieldStrength": 3.0,
      "Manufacturer": "SIEMENS",
      "ManufacturerModelName": "Prisma",
      "Modality": "MR",
      "NumberOfAverages": 1.0,
      "NumberOfPhaseEncodingSteps": 96,
      "PercentPhaseFieldOfView": 100.0,
      "PercentSampling": 100.0,
      "PerformedProcedureStepStartTime": "103859.085000",
      "PhotometricInterpretation": "MONOCHROME2",
      "PixelBandwidth": 2265.0,
      "PixelRepresentation": 0,
      "PixelSpacing": [2.5, 2.5],
      "ProtocolName": "EPI_PSAP_iso2.5",
      "RepetitionTime": 2000.0,
      "Rows": 768,
      "SAR": 0.10501967962989,
      "SamplesPerPixel": 1,
      "ScanOptions": "FS",
      "ScanningSequence": "EP",
      "SequenceName": "epfid2d1_96",
      "SequenceVariant": [
        "SK",
        "SS"
],
      "SeriesDescription": "EPI_PSAP_iso2.5",
      "SeriesNumber": 6,
      "SeriesTime": "111146.448000",
      "SliceLocation": -43.968565771919,
      "SliceThickness": 2.5,
      "SmallestImagePixelValue": 0,
      "SoftwareVersions": "syngo MR E11",
      "SpacingBetweenSlices": 2.5000000507148,
      "SpecificCharacterSet": "ISO_IR 100",
      "StudyID": "1",
      "StudyTime": "103858.956000",
      "TransmitCoilName": "Body",
      "VariableFlipAngleFlag": "N",
      "WindowCenterWidthExplanation": "Algo1",
      "dBdt": 0.0},
    "slices": {}
  },
  "time": {
    "samples": {
      "AcquisitionNumber": [1, 2, 3, 4, 5, 6, 7, 8, 9, 10, 11, 12, 13, 14, 15, 16, 17, 18, 19, 20, 21, 22, 23, 24, 25, 26, 27, 28, 29, 30, 31, 32, 33, 34, 35, 36, 37, 38, 39, 40, 41, 42, 43, 44, 45, 46, 47, 48, 49, 50, 51, 52, 53, 54, 55, 56, 57, 58, 59, 60, 61, 62, 63, 64, 65, 66, 67, 68, 69, 70, 71, 72, 73, 74, 75, 76, 77, 78, 79, 80, 81, 82, 83, 84, 85, 86, 87, 88, 89, 90, 91, 92, 93, 94, 95, 96, 97, 98, 99, 100, 101, 102, 103, 104, 105, 106, 107, 108, 109, 110, 111, 112, 113, 114, 115, 116, 117, 118, 119, 120, 121, 122, 123, 124, 125, 126, 127, 128, 129, 130, 131, 132, 133, 134, 135, 136, 137, 138, 139, 140, 141, 142, 143, 144, 145, 146, 147, 148, 149, 150, 151, 152, 153, 154, 155, 156, 157, 158, 159, 160, 161, 162, 163, 164, 165, 166, 167, 168, 169, 170, 171, 172, 173, 174, 175, 176, 177, 178, 179, 180, 181, 182, 183, 184, 185, 186, 187, 188, 189, 190, 191, 192, 193, 194, 195, 196, 197, 198, 199, 200, 201, 202, 203, 204, 205, 206, 207, 208, 209, 210, 211, 212, 213, 214, 215, 216, 217, 218, 219, 220, 221, 222, 223, 224, 225, 226, 227, 228, 229, 230, 231, 232, 233, 234, 235, 236, 237, 238, 239, 240, 241, 242, 243, 244, 245, 246, 247, 248, 249, 250, 251, 252, 253, 254, 255, 256, 257, 258, 259, 260, 261, 262, 263, 264, 265, 266, 267, 268, 269, 270, 271, 272, 273, 274, 275, 276, 277, 278, 279, 280, 281, 282, 283, 284, 285, 286, 287, 288, 289, 290, 291, 292, 293, 294, 295, 296, 297, 298, 299, 300, 301, 302, 303, 304, 305, 306, 307, 308, 309, 310, 311, 312, 313, 314, 315, 316, 317, 318, 319, 320, 321, 322, 323, 324, 325, 326, 327, 328, 329, 330, 331, 332, 333, 334, 335, 336, 337, 338, 339, 340, 341, 342, 343, 344, 345, 346, 347, 348, 349, 350, 351, 352, 353, 354, 355, 356, 357, 358, 359, 360, 361, 362, 363, 364, 365, 366, 367, 368, 369, 370, 371, 372, 373, 374, 375, 376, 377, 378, 379, 380, 381, 382, 383, 384, 385, 386, 387, 388, 389, 390, 391, 392, 393, 394, 395, 396, 397, 398, 399, 400, 401, 402, 403, 404, 405, 406, 407, 408, 409, 410, 411, 412, 413, 414, 415, 416, 417, 418, 419, 420, 421, 422, 423, 424, 425, 426, 427, 428, 429, 430, 431, 432, 433, 434, 435, 436, 437, 438, 439, 440, 441, 442, 443, 444, 445, 446, 447, 448, 449, 450, 451, 452, 453, 454, 455, 456, 457, 458, 459, 460, 461, 462, 463, 464, 465, 466, 467, 468, 469, 470, 471, 472, 473, 474, 475, 476, 477, 478, 479, 480, 481, 482, 483, 484, 485, 486, 487, 488, 489, 490, 491, 492, 493, 494, 495],
      "AcquisitionTime": ["111058.282500", "111100.282500", "111102.282500", "111104.282500", "111106.282500", "111108.282500", "111110.282500", "111112.282500", "111114.282500", "111116.282500", "111118.282500", "111120.282500", "111122.282500", "111124.282500", "111126.282500", "111128.282500", "111130.282500", "111132.282500", "111134.282500", "111136.282500", "111138.282500", "111140.282500", "111142.282500", "111144.282500", "111146.282500", "111148.282500", "111150.282500", "111152.282500", "111154.282500", "111156.282500", "111158.282500", "111200.282500", "111202.282500", "111204.282500", "111206.282500", "111208.282500", "111210.282500", "111212.282500", "111214.282500", "111216.282500", "111218.282500", "111220.282500", "111222.282500", "111224.282500", "111226.282500", "111228.282500", "111230.282500", "111232.282500", "111234.282500", "111236.282500", "111238.282500", "111240.282500", "111242.282500", "111244.282500", "111246.282500", "111248.282500", "111250.282500", "111252.282500", "111254.282500", "111256.282500", "111258.282500", "111300.282500", "111302.282500", "111304.282500", "111306.282500", "111308.282500", "111310.282500", "111312.282500", "111314.282500", "111316.282500", "111318.282500", "111320.282500", "111322.282500", "111324.282500", "111326.282500", "111328.282500", "111330.282500", "111332.282500", "111334.282500", "111336.282500", "111338.282500", "111340.282500", "111342.282500", "111344.282500", "111346.282500", "111348.282500", "111350.282500", "111352.282500", "111354.282500", "111356.282500", "111358.282500", "111400.282500", "111402.282500", "111404.282500", "111406.282500", "111408.282500", "111410.282500", "111412.282500", "111414.282500", "111416.282500", "111418.282500", "111420.282500", "111422.282500", "111424.282500", "111426.282500", "111428.282500", "111430.282500", "111432.282500", "111434.282500", "111436.282500", "111438.282500", "111440.282500", "111442.282500", "111444.282500", "111446.282500", "111448.282500", "111450.282500", "111452.282500", "111454.282500", "111456.282500", "111458.282500", "111500.282500", "111502.282500", "111504.282500", "111506.282500", "111508.282500", "111510.282500", "111512.282500", "111514.282500", "111516.282500", "111518.282500", "111520.282500", "111522.282500", "111524.282500", "111526.282500", "111528.282500", "111530.282500", "111532.282500", "111534.282500", "111536.282500", "111538.282500", "111540.282500", "111542.282500", "111544.282500", "111546.282500", "111548.282500", "111550.282500", "111552.282500", "111554.282500", "111556.282500", "111558.282500", "111600.282500", "111602.282500", "111604.282500", "111606.282500", "111608.282500", "111610.282500", "111612.282500", "111614.282500", "111616.282500", "111618.282500", "111620.282500", "111622.282500", "111624.282500", "111626.282500", "111628.282500", "111630.282500", "111632.282500", "111634.282500", "111636.282500", "111638.282500", "111640.282500", "111642.282500", "111644.282500", "111646.282500", "111648.282500", "111650.282500", "111652.282500", "111654.282500", "111656.282500", "111658.282500", "111700.282500", "111702.282500", "111704.282500", "111706.282500", "111708.282500", "111710.282500", "111712.282500", "111714.282500", "111716.282500", "111718.282500", "111720.282500", "111722.282500", "111724.282500", "111726.282500", "111728.282500", "111730.282500", "111732.282500", "111734.282500", "111736.282500", "111738.282500", "111740.282500", "111742.282500", "111744.282500", "111746.282500", "111748.282500", "111750.282500", "111752.282500", "111754.282500", "111756.282500", "111758.282500", "111800.282500", "111802.282500", "111804.282500", "111806.282500", "111808.282500", "111810.282500", "111812.282500", "111814.282500", "111816.282500", "111818.282500", "111820.282500", "111822.282500", "111824.282500", "111826.282500", "111828.282500", "111830.282500", "111832.282500", "111834.282500", "111836.282500", "111838.282500", "111840.282500", "111842.282500", "111844.282500", "111846.282500", "111848.282500", "111850.282500", "111852.282500", "111854.282500", "111856.282500", "111858.282500", "111900.282500", "111902.282500", "111904.282500", "111906.282500", "111908.282500", "111910.282500", "111912.282500", "111914.282500", "111916.282500", "111918.282500", "111920.282500", "111922.282500", "111924.282500", "111926.282500", "111928.282500", "111930.282500", "111932.282500", "111934.282500", "111936.282500", "111938.282500", "111940.282500", "111942.282500", "111944.282500", "111946.282500", "111948.282500", "111950.282500", "111952.282500", "111954.282500", "111956.282500", "111958.282500", "112000.282500", "112002.282500", "112004.282500", "112006.282500", "112008.282500", "112010.282500", "112012.282500", "112014.282500", "112016.282500", "112018.282500", "112020.282500", "112022.282500", "112024.282500", "112026.282500", "112028.282500", "112030.282500", "112032.282500", "112034.282500", "112036.282500", "112038.282500", "112040.282500", "112042.282500", "112044.282500", "112046.282500", "112048.282500", "112050.282500", "112052.282500", "112054.282500", "112056.282500", "112058.282500", "112100.282500", "112102.282500", "112104.282500", "112106.282500", "112108.282500", "112110.282500", "112112.282500", "112114.282500", "112116.282500", "112118.282500", "112120.282500", "112122.282500", "112124.282500", "112126.282500", "112128.282500", "112130.282500", "112132.282500", "112134.282500", "112136.282500", "112138.282500", "112140.282500", "112142.282500", "112144.282500", "112146.282500", "112148.282500", "112150.282500", "112152.282500", "112154.282500", "112156.282500", "112158.282500", "112200.282500", "112202.282500", "112204.282500", "112206.282500", "112208.282500", "112210.282500", "112212.282500", "112214.282500", "112216.282500", "112218.282500", "112220.282500", "112222.282500", "112224.282500", "112226.282500", "112228.282500", "112230.282500", "112232.282500", "112234.282500", "112236.282500", "112238.282500", "112240.282500", "112242.282500", "112244.282500", "112246.282500", "112248.282500", "112250.282500", "112252.282500", "112254.282500", "112256.282500", "112258.282500", "112300.282500", "112302.282500", "112304.282500", "112306.282500", "112308.282500", "112310.282500", "112312.282500", "112314.282500", "112316.282500", "112318.282500", "112320.282500", "112322.282500", "112324.282500", "112326.282500", "112328.282500", "112330.282500", "112332.282500", "112334.282500", "112336.282500", "112338.282500", "112340.282500", "112342.282500", "112344.282500", "112346.282500", "112348.282500", "112350.282500", "112352.282500", "112354.282500", "112356.282500", "112358.282500", "112400.282500", "112402.282500", "112404.282500", "112406.282500", "112408.282500", "112410.282500", "112412.282500", "112414.282500", "112416.282500", "112418.282500", "112420.282500", "112422.282500", "112424.282500", "112426.282500", "112428.282500", "112430.282500", "112432.282500", "112434.282500", "112436.282500", "112438.282500", "112440.282500", "112442.282500", "112444.282500", "112446.282500", "112448.282500", "112450.282500", "112452.282500", "112454.282500", "112456.282500", "112458.282500", "112500.282500", "112502.282500", "112504.282500", "112506.282500", "112508.282500", "112510.282500", "112512.282500", "112514.282500", "112516.282500", "112518.282500", "112520.282500", "112522.282500", "112524.282500", "112526.282500", "112528.282500", "112530.282500", "112532.282500", "112534.282500", "112536.282500", "112538.282500", "112540.282500", "112542.282500", "112544.282500", "112546.282500", "112548.282500", "112550.282500", "112552.282500", "112554.282500", "112556.282500", "112558.282500", "112600.282500", "112602.282500", "112604.282500", "112606.282500", "112608.282500", "112610.282500", "112612.282500", "112614.282500", "112616.282500", "112618.282500", "112620.282500", "112622.282500", "112624.282500", "112626.282500", "112628.282500", "112630.282500", "112632.282500", "112634.282500", "112636.282500", "112638.282500", "112640.282500", "112642.282500", "112644.282500", "112646.282500", "112648.282500", "112650.282500", "112652.282500", "112654.282500", "112656.282500", "112658.282500", "112700.282500", "112702.282500", "112704.282500", "112706.282500", "112708.282500", "112710.282500", "112712.282500", "112714.282500", "112716.282500", "112718.282500", "112720.282500", "112722.282500", "112724.282500", "112726.282500"],
      "ContentTime": ["111146.450000", "111146.454000", "111146.456000", "111146.459000", "111146.468000", "111146.471000", "111146.474000", "111146.476000", "111146.480000", "111146.483000", "111146.485000", "111146.488000", "111146.490000", "111146.493000", "111146.496000", "111146.498000", "111146.501000", "111146.504000", "111146.510000", "111146.512000", "111146.515000", "111146.517000", "111146.520000", "111226.424000", "111226.427000", "111226.430000", "111226.445000", "111226.457000", "111226.460000", "111226.462000", "111226.465000", "111226.467000", "111226.470000", "111226.473000", "111226.475000", "111226.478000", "111226.480000", "111226.483000", "111226.485000", "111226.488000", "111226.493000", "111226.495000", "111226.498000", "111306.424000", "111306.427000", "111306.430000", "111306.433000", "111306.435000", "111306.438000", "111306.440000", "111306.443000", "111306.445000", "111306.448000", "111306.450000", "111306.453000", "111306.455000", "111306.468000", "111306.470000", "111306.473000", "111306.475000", "111306.478000", "111306.481000", "111306.483000", "111346.424000", "111346.427000", "111346.430000", "111346.432000", "111346.435000", "111346.438000", "111346.440000", "111346.443000", "111346.445000", "111346.448000", "111346.450000", "111346.453000", "111346.455000", "111346.458000", "111346.460000", "111346.463000", "111346.465000", "111346.468000", "111346.471000", "111346.473000", "111426.423000", "111426.426000", "111426.429000", "111426.431000", "111426.434000", "111426.437000", "111426.439000", "111426.442000", "111426.444000", "111426.447000", "111426.450000", "111426.452000", "111426.455000", "111426.457000", "111426.460000", "111426.462000", "111426.465000", "111426.467000", "111426.470000", "111426.472000", "111506.425000", "111506.427000", "111506.430000", "111506.432000", "111506.435000", "111506.438000", "111506.440000", "111506.443000", "111506.445000", "111506.448000", "111506.450000", "111506.453000", "111506.455000", "111506.458000", "111506.461000", "111506.463000", "111506.466000", "111506.468000", "111506.471000", "111506.474000", "111546.425000", "111546.428000", "111546.430000", "111546.433000", "111546.435000", "111546.438000", "111546.440000", "111546.443000", "111546.445000", "111546.448000", "111546.451000", "111546.453000", "111546.456000", "111546.459000", "111546.461000", "111546.464000", "111546.466000", "111546.469000", "111546.471000", "111546.474000", "111626.424000", "111626.427000", "111626.430000", "111626.432000", "111626.435000", "111626.438000", "111626.440000", "111626.443000", "111626.445000", "111626.448000", "111626.450000", "111626.453000", "111626.455000", "111626.458000", "111626.461000", "111626.463000", "111626.466000", "111626.468000", "111626.471000", "111626.473000", "111706.425000", "111706.428000", "111706.430000", "111706.433000", "111706.435000", "111706.438000", "111706.440000", "111706.443000", "111706.445000", "111706.448000", "111706.450000", "111706.453000", "111706.455000", "111706.458000", "111706.461000", "111706.463000", "111706.466000", "111706.468000", "111706.471000", "111706.473000", "111746.424000", "111746.427000", "111746.430000", "111746.432000", "111746.435000", "111746.437000", "111746.440000", "111746.443000", "111746.445000", "111746.448000", "111746.450000", "111746.453000", "111746.455000", "111746.458000", "111746.460000", "111746.463000", "111746.466000", "111746.468000", "111746.471000", "111746.473000", "111826.424000", "111826.427000", "111826.430000", "111826.433000", "111826.435000", "111826.438000", "111826.440000", "111826.443000", "111826.445000", "111826.448000", "111826.450000", "111826.453000", "111826.455000", "111826.458000", "111826.461000", "111826.463000", "111826.466000", "111826.468000", "111826.471000", "111826.473000", "111906.424000", "111906.427000", "111906.429000", "111906.432000", "111906.434000", "111906.437000", "111906.439000", "111906.442000", "111906.444000", "111906.447000", "111906.461000", "111906.464000", "111906.466000", "111906.469000", "111906.472000", "111906.474000", "111906.477000", "111906.479000", "111906.482000", "111906.484000", "111946.424000", "111946.427000", "111946.430000", "111946.432000", "111946.435000", "111946.438000", "111946.441000", "111946.443000", "111946.446000", "111946.448000", "111946.451000", "111946.453000", "111946.456000", "111946.464000", "111946.466000", "111946.469000", "111946.471000", "111946.474000", "111946.477000", "111946.479000", "112026.424000", "112026.427000", "112026.430000", "112026.432000", "112026.435000", "112026.438000", "112026.440000", "112026.443000", "112026.445000", "112026.448000", "112026.451000", "112026.453000", "112026.456000", "112026.459000", "112026.461000", "112026.464000", "112026.466000", "112026.469000", "112026.472000", "112026.474000", "112046.425000", "112046.428000", "112046.430000", "112046.433000", "112046.435000", "112046.438000", "112046.440000", "112046.443000", "112046.446000", "112046.448000", "112126.424000", "112126.426000", "112126.429000", "112126.432000", "112126.434000", "112126.437000", "112126.439000", "112126.442000", "112126.444000", "112126.447000", "112126.449000", "112126.452000", "112126.455000", "112126.457000", "112126.460000", "112126.462000", "112126.465000", "112126.467000", "112126.470000", "112126.472000", "112206.424000", "112206.427000", "112206.430000", "112206.433000", "112206.435000", "112206.438000", "112206.440000", "112206.443000", "112206.445000", "112206.448000", "112206.450000", "112206.453000", "112206.455000", "112206.458000", "112206.461000", "112206.463000", "112206.466000", "112206.468000", "112206.471000", "112206.473000", "112246.424000", "112246.427000", "112246.430000", "112246.433000", "112246.435000", "112246.438000", "112246.440000", "112246.443000", "112246.445000", "112246.448000", "112246.451000", "112246.453000", "112246.456000", "112246.458000", "112246.461000", "112246.464000", "112246.466000", "112246.469000", "112246.471000", "112246.474000", "112326.425000", "112326.427000", "112326.430000", "112326.433000", "112326.447000", "112326.450000", "112326.452000", "112326.455000", "112326.457000", "112326.460000", "112326.462000", "112326.465000", "112326.467000", "112326.470000", "112326.473000", "112326.475000", "112326.478000", "112326.480000", "112326.483000", "112326.485000", "112406.425000", "112406.427000", "112406.430000", "112406.433000", "112406.435000", "112406.438000", "112406.440000", "112406.443000", "112406.446000", "112406.448000", "112406.451000", "112406.453000", "112406.456000", "112406.458000", "112406.461000", "112406.464000", "112406.466000", "112406.469000", "112406.471000", "112406.474000", "112446.424000", "112446.427000", "112446.430000", "112446.432000", "112446.435000", "112446.438000", "112446.440000", "112446.443000", "112446.445000", "112446.448000", "112446.450000", "112446.453000", "112446.456000", "112446.458000", "112446.461000", "112446.463000", "112446.466000", "112446.468000", "112446.471000", "112446.473000", "112526.425000", "112526.427000", "112526.430000", "112526.433000", "112526.435000", "112526.438000", "112526.440000", "112526.443000", "112526.445000", "112526.448000", "112526.451000", "112526.453000", "112526.456000", "112526.458000", "112526.461000", "112526.463000", "112526.466000", "112526.468000", "112526.471000", "112526.473000", "112606.424000", "112606.426000", "112606.429000", "112606.432000", "112606.434000", "112606.437000", "112606.440000", "112606.442000", "112606.445000", "112606.447000", "112606.450000", "112606.452000", "112606.455000", "112606.457000", "112606.460000", "112606.463000", "112606.465000", "112606.468000", "112606.470000", "112606.473000", "112646.424000", "112646.427000", "112646.430000", "112646.433000", "112646.435000", "112646.438000", "112646.441000", "112646.443000", "112646.446000", "112646.448000", "112646.451000", "112646.453000", "112646.456000", "112646.458000", "112646.461000", "112646.464000", "112646.466000", "112646.469000", "112646.471000", "112646.474000", "112726.425000", "112726.427000", "112726.430000", "112726.433000", "112726.435000", "112726.438000", "112726.441000", "112726.443000", "112726.446000", "112726.448000", "112726.451000", "112726.454000", "112726.456000", "112726.459000", "112726.462000", "112726.464000", "112726.467000", "112726.469000", "112726.472000", "112726.474000", "112729.748000", "112729.751000"],
