{
  "AcquisitionMatrixPE": 96,
  "AcquisitionNumber": 1,
  "AcquisitionTime": "15:13:23.400000",
  "BandwidthPerPixelPhaseEncode": 20.425,
  "BaseResolution": 96,
  "BodyPartExamined": "BRAIN",
  "CoilCombinationMethod": "Sum of Squares",
  "ConsistencyInfo": "N4_VE11C_LATEST_20160120",
  "ConversionSoftware": "dcm2niix",
  "ConversionSoftwareVersion": "v1.0.20211006",
  "DerivedVendorReportedEchoSpacing": 0.000509996,
  "DeviceSerialNumber": "166054",
  "DwellTime": 2.3e-06,
  "EchoTime": 0.03,
  "EchoTrainLength": 96,
  "EffectiveEchoSpacing": 0.000509996,
  "FlipAngle": 75,
  "HeudiconvVersion": "0.11.3+d20220512",
  "ImageComments": "Unaliased MB2/PE2",
  "ImageOrientationPatientDICOM": [0.998804, 0.0151644, 0.0464857, -0.00191757, 0.96211, -0.272655],
  "ImageOrientationText": "Tra>Cor(-15.8)>Sag(2.8)",
  "ImageType": [
    "ORIGINAL",
    "PRIMARY",
    "M",
    "MB",
    "ND",
    "MOSAIC"
],
  "ImagingFrequency": 123.26,
  "InPlanePhaseEncodingDirectionDICOM": "COL",
  "InstitutionAddress": "Street StreetNo,City,District,IL,ZIP",
  "InstitutionName": "Weizmann Institute",
  "InstitutionalDepartmentName": "Department",
  "MRAcquisitionType": "2D",
  "MagneticFieldStrength": 3,
  "Manufacturer": "Siemens",
  "ManufacturersModelName": "Prisma",
  "MatrixCoilMode": "SENSE",
  "Modality": "MR",
  "MultibandAccelerationFactor": 2,
  "PartialFourier": 1,
  "PatientPosition": "HFS",
  "PercentPhaseFOV": 100,
  "PercentSampling": 100,
  "PhaseEncodingDirection": "j-",
  "PhaseEncodingSteps": 96,
  "PhaseResolution": 1,
  "PixelBandwidth": 2265,
  "ProcedureStepDescription": "Weizmann^Sobel",
  "ProtocolName": "EPI_PSAP_iso2.5",
  "PulseSequenceDetails": "%CustomerSeq%\\cmrr_mbep2d_bold",
  "ReceiveCoilActiveElements": "HEA;HEP",
  "ReceiveCoilName": "Head_32",
  "ReconMatrixPE": 96,
  "RepetitionTime": 2,
  "SAR": 0.109903,
  "ScanOptions": "FS",
  "ScanningSequence": "EP",
  "SequenceName": "epfid2d1_96",
  "SequenceVariant": "SK\\SS",
  "SeriesDescription": "EPI_PSAP_iso2.5",
  "SeriesNumber": 6,
  "ShimSetting": [5934, -4058, -1858, 615, 115, 166, 72, 48],
  "SliceThickness": 2.5,
  "SliceTiming": [0, 0.92, 1.84, 0.78, 1.6975, 0.6375, 1.5575, 0.495, 1.415, 0.355, 1.275, 0.2125, 1.1325, 0.0725, 0.99, 1.91, 0.85, 1.77, 0.7075, 1.6275, 0.5675, 1.485, 0.425, 1.345, 0.285, 1.2025, 0.1425, 1.0625, 0, 0.92, 1.84, 0.78, 1.6975, 0.6375, 1.5575, 0.495, 1.415, 0.355, 1.275, 0.2125, 1.1325, 0.0725, 0.99, 1.91, 0.85, 1.77, 0.7075, 1.6275, 0.5675, 1.485, 0.425, 1.345, 0.285, 1.2025, 0.1425, 1.0625],
  "SoftwareVersions": "syngo MR E11",
  "SpacingBetweenSlices": 2.5,
  "StationName": "AWP166054",
  "TaskName": "PSAP",
  "TotalReadoutTime": 0.0484496,
  "TxRefAmp": 237.5,
  "VendorReportedEchoSpacing": 0.00051,
  "WipMemBlock": "b40b0952-6dea-4cde-b47f-33626a0c29c9||Sequence: R016 ve11c/master r/e634e98; Dec 19 2017 11:00:25 by eja",
  "dcmmeta_affine": [
    [-2.497009515762329, -0.004793932661414146, 0.12214746326208115, 118.24591827392578],
    [-0.03791099414229393, 2.4052751064300537, -0.6805985569953918, -88.78214263916016],
    [0.11621420830488205, 0.6816367506980896, 2.402470588684082, -103.59954833984375],
    [0.0, 0.0, 0.0, 1.0]
],
  "dcmmeta_reorient_transform": [
    [0.0, -1.0, 0.0, 95.0],
    [1.0, 0.0, 0.0, 0.0],
    [0.0, 0.0, 1.0, 0.0],
    [0.0, 0.0, 0.0, 1.0]
],
  "dcmmeta_shape": [96, 96, 56, 493],
  "dcmmeta_slice_dim": 2,
  "dcmmeta_version": 0.6,
  "global": {
    "const": {
      "AcquisitionMatrix": [96, 0, 0, 96],
      "AngioFlag": "N",
      "BitsAllocated": 16,
      "BitsStored": 16,
      "BodyPartExamined": "BRAIN",
      "Columns": 768,
      "EchoNumbers": 1,
      "EchoTime": 30.0,
      "EchoTrainLength": 96,
      "FlipAngle": 75.0,
      "HighBit": 15,
      "ImageOrientationPatient": [0.99880384572098, 0.01516439775948, 0.04648568396363, -0.0019175730846, 0.96211004540691, -0.2726546963479],
      "ImagePositionPatient": [-955.17496064412, -960.62952752774, 151.13791503591],
      "ImageType": [
        "ORIGINAL",
        "PRIMARY",
        "M",
        "MB",
        "ND",
        "MOSAIC"
],
      "ImagedNucleus": "1H",
      "ImagingFrequency": 123.260289,
      "InPlanePhaseEncodingDirection": "COL",
      "MRAcquisitionType": "2D",
      "MagneticFieldStrength": 3.0,
      "Manufacturer": "SIEMENS",
      "ManufacturerModelName": "Prisma",
      "Modality": "MR",
      "NumberOfAverages": 1.0,
      "NumberOfPhaseEncodingSteps": 96,
      "PercentPhaseFieldOfView": 100.0,
      "PercentSampling": 100.0,
      "PerformedProcedureStepStartTime": "144552.306000",
      "PhotometricInterpretation": "MONOCHROME2",
      "PixelBandwidth": 2265.0,
      "PixelRepresentation": 0,
      "PixelSpacing": [2.5, 2.5],
      "ProtocolName": "EPI_PSAP_iso2.5",
      "RepetitionTime": 2000.0,
      "Rows": 768,
      "SAR": 0.1099033870341,
      "SamplesPerPixel": 1,
      "ScanOptions": "FS",
      "ScanningSequence": "EP",
      "SequenceName": "epfid2d1_96",
      "SequenceVariant": [
        "SK",
        "SS"
],
      "SeriesDescription": "EPI_PSAP_iso2.5",
      "SeriesNumber": 6,
      "SeriesTime": "151423.646000",
      "SliceLocation": -69.610576413221,
      "SliceThickness": 2.5,
      "SmallestImagePixelValue": 0,
      "SoftwareVersions": "syngo MR E11",
      "SpacingBetweenSlices": 2.4999999428647,
      "SpecificCharacterSet": "ISO_IR 100",
      "StudyID": "2",
      "StudyTime": "144552.254000",
      "TransmitCoilName": "Body",
      "VariableFlipAngleFlag": "N",
      "WindowCenterWidthExplanation": "Algo1",
      "dBdt": 0.0},
    "slices": {}
  },
  "time": {
    "samples": {
      "AcquisitionNumber": [1, 2, 3, 4, 5, 6, 7, 8, 9, 10, 11, 12, 13, 14, 15, 16, 17, 18, 19, 20, 21, 22, 23, 24, 25, 26, 27, 28, 29, 30, 31, 32, 33, 34, 35, 36, 37, 38, 39, 40, 41, 42, 43, 44, 45, 46, 47, 48, 49, 50, 51, 52, 53, 54, 55, 56, 57, 58, 59, 60, 61, 62, 63, 64, 65, 66, 67, 68, 69, 70, 71, 72, 73, 74, 75, 76, 77, 78, 79, 80, 81, 82, 83, 84, 85, 86, 87, 88, 89, 90, 91, 92, 93, 94, 95, 96, 97, 98, 99, 100, 101, 102, 103, 104, 105, 106, 107, 108, 109, 110, 111, 112, 113, 114, 115, 116, 117, 118, 119, 120, 121, 122, 123, 124, 125, 126, 127, 128, 129, 130, 131, 132, 133, 134, 135, 136, 137, 138, 139, 140, 141, 142, 143, 144, 145, 146, 147, 148, 149, 150, 151, 152, 153, 154, 155, 156, 157, 158, 159, 160, 161, 162, 163, 164, 165, 166, 167, 168, 169, 170, 171, 172, 173, 174, 175, 176, 177, 178, 179, 180, 181, 182, 183, 184, 185, 186, 187, 188, 189, 190, 191, 192, 193, 194, 195, 196, 197, 198, 199, 200, 201, 202, 203, 204, 205, 206, 207, 208, 209, 210, 211, 212, 213, 214, 215, 216, 217, 218, 219, 220, 221, 222, 223, 224, 225, 226, 227, 228, 229, 230, 231, 232, 233, 234, 235, 236, 237, 238, 239, 240, 241, 242, 243, 244, 245, 246, 247, 248, 249, 250, 251, 252, 253, 254, 255, 256, 257, 258, 259, 260, 261, 262, 263, 264, 265, 266, 267, 268, 269, 270, 271, 272, 273, 274, 275, 276, 277, 278, 279, 280, 281, 282, 283, 284, 285, 286, 287, 288, 289, 290, 291, 292, 293, 294, 295, 296, 297, 298, 299, 300, 301, 302, 303, 304, 305, 306, 307, 308, 309, 310, 311, 312, 313, 314, 315, 316, 317, 318, 319, 320, 321, 322, 323, 324, 325, 326, 327, 328, 329, 330, 331, 332, 333, 334, 335, 336, 337, 338, 339, 340, 341, 342, 343, 344, 345, 346, 347, 348, 349, 350, 351, 352, 353, 354, 355, 356, 357, 358, 359, 360, 361, 362, 363, 364, 365, 366, 367, 368, 369, 370, 371, 372, 373, 374, 375, 376, 377, 378, 379, 380, 381, 382, 383, 384, 385, 386, 387, 388, 389, 390, 391, 392, 393, 394, 395, 396, 397, 398, 399, 400, 401, 402, 403, 404, 405, 406, 407, 408, 409, 410, 411, 412, 413, 414, 415, 416, 417, 418, 419, 420, 421, 422, 423, 424, 425, 426, 427, 428, 429, 430, 431, 432, 433, 434, 435, 436, 437, 438, 439, 440, 441, 442, 443, 444, 445, 446, 447, 448, 449, 450, 451, 452, 453, 454, 455, 456, 457, 458, 459, 460, 461, 462, 463, 464, 465, 466, 467, 468, 469, 470, 471, 472, 473, 474, 475, 476, 477, 478, 479, 480, 481, 482, 483, 484, 485, 486, 487, 488, 489, 490, 491, 492, 493],
      "AcquisitionTime": ["151323.400000", "151325.400000", "151327.400000", "151329.400000", "151331.400000", "151333.400000", "151335.400000", "151337.400000", "151339.400000", "151341.400000", "151343.400000", "151345.400000", "151347.400000", "151349.400000", "151351.400000", "151353.400000", "151355.400000", "151357.400000", "151359.400000", "151401.400000", "151403.400000", "151405.400000", "151407.400000", "151409.400000", "151411.400000", "151413.400000", "151415.400000", "151417.400000", "151419.400000", "151421.400000", "151423.400000", "151425.400000", "151427.400000", "151429.400000", "151431.400000", "151433.400000", "151435.400000", "151437.400000", "151439.400000", "151441.400000", "151443.400000", "151445.400000", "151447.400000", "151449.400000", "151451.400000", "151453.400000", "151455.400000", "151457.400000", "151459.400000", "151501.400000", "151503.400000", "151505.400000", "151507.400000", "151509.400000", "151511.400000", "151513.400000", "151515.400000", "151517.400000", "151519.400000", "151521.400000", "151523.400000", "151525.400000", "151527.400000", "151529.400000", "151531.400000", "151533.400000", "151535.400000", "151537.400000", "151539.400000", "151541.400000", "151543.400000", "151545.400000", "151547.400000", "151549.400000", "151551.400000", "151553.400000", "151555.400000", "151557.400000", "151559.400000", "151601.400000", "151603.400000", "151605.400000", "151607.400000", "151609.400000", "151611.400000", "151613.400000", "151615.400000", "151617.400000", "151619.400000", "151621.400000", "151623.400000", "151625.400000", "151627.400000", "151629.400000", "151631.400000", "151633.400000", "151635.400000", "151637.400000", "151639.400000", "151641.400000", "151643.400000", "151645.400000", "151647.400000", "151649.400000", "151651.400000", "151653.400000", "151655.400000", "151657.400000", "151659.400000", "151701.400000", "151703.400000", "151705.400000", "151707.400000", "151709.400000", "151711.400000", "151713.400000", "151715.400000", "151717.400000", "151719.400000", "151721.400000", "151723.400000", "151725.400000", "151727.400000", "151729.400000", "151731.400000", "151733.400000", "151735.400000", "151737.400000", "151739.400000", "151741.400000", "151743.400000", "151745.400000", "151747.400000", "151749.400000", "151751.400000", "151753.400000", "151755.400000", "151757.400000", "151759.400000", "151801.400000", "151803.400000", "151805.400000", "151807.400000", "151809.400000", "151811.400000", "151813.400000", "151815.400000", "151817.400000", "151819.400000", "151821.400000", "151823.400000", "151825.400000", "151827.400000", "151829.400000", "151831.400000", "151833.400000", "151835.400000", "151837.400000", "151839.400000", "151841.400000", "151843.400000", "151845.400000", "151847.400000", "151849.400000", "151851.400000", "151853.400000", "151855.400000", "151857.400000", "151859.400000", "151901.400000", "151903.400000", "151905.400000", "151907.400000", "151909.400000", "151911.400000", "151913.400000", "151915.400000", "151917.400000", "151919.400000", "151921.400000", "151923.400000", "151925.400000", "151927.400000", "151929.400000", "151931.400000", "151933.400000", "151935.400000", "151937.400000", "151939.400000", "151941.400000", "151943.400000", "151945.400000", "151947.400000", "151949.400000", "151951.400000", "151953.400000", "151955.400000", "151957.400000", "151959.400000", "152001.400000", "152003.400000", "152005.400000", "152007.400000", "152009.400000", "152011.400000", "152013.400000", "152015.400000", "152017.400000", "152019.400000", "152021.400000", "152023.400000", "152025.400000", "152027.400000", "152029.400000", "152031.400000", "152033.400000", "152035.400000", "152037.400000", "152039.400000", "152041.400000", "152043.400000", "152045.400000", "152047.400000", "152049.400000", "152051.400000", "152053.400000", "152055.400000", "152057.400000", "152059.400000", "152101.400000", "152103.400000", "152105.400000", "152107.400000", "152109.400000", "152111.400000", "152113.400000", "152115.400000", "152117.400000", "152119.400000", "152121.400000", "152123.400000", "152125.400000", "152127.400000", "152129.400000", "152131.400000", "152133.400000", "152135.400000", "152137.400000", "152139.400000", "152141.400000", "152143.400000", "152145.400000", "152147.400000", "152149.400000", "152151.400000", "152153.400000", "152155.400000", "152157.400000", "152159.400000", "152201.400000", "152203.400000", "152205.400000", "152207.400000", "152209.400000", "152211.400000", "152213.400000", "152215.400000", "152217.400000", "152219.400000", "152221.400000", "152223.400000", "152225.400000", "152227.400000", "152229.400000", "152231.400000", "152233.400000", "152235.400000", "152237.400000", "152239.400000", "152241.400000", "152243.400000", "152245.400000", "152247.400000", "152249.400000", "152251.400000", "152253.400000", "152255.400000", "152257.400000", "152259.400000", "152301.400000", "152303.400000", "152305.400000", "152307.400000", "152309.400000", "152311.400000", "152313.400000", "152315.400000", "152317.400000", "152319.400000", "152321.400000", "152323.400000", "152325.400000", "152327.400000", "152329.400000", "152331.400000", "152333.400000", "152335.400000", "152337.400000", "152339.400000", "152341.400000", "152343.400000", "152345.400000", "152347.400000", "152349.400000", "152351.400000", "152353.400000", "152355.400000", "152357.400000", "152359.400000", "152401.400000", "152403.400000", "152405.400000", "152407.400000", "152409.400000", "152411.400000", "152413.400000", "152415.400000", "152417.400000", "152419.400000", "152421.400000", "152423.400000", "152425.400000", "152427.400000", "152429.400000", "152431.400000", "152433.400000", "152435.400000", "152437.400000", "152439.400000", "152441.400000", "152443.400000", "152445.400000", "152447.400000", "152449.400000", "152451.400000", "152453.400000", "152455.400000", "152457.400000", "152459.400000", "152501.400000", "152503.400000", "152505.400000", "152507.400000", "152509.400000", "152511.400000", "152513.400000", "152515.400000", "152517.400000", "152519.400000", "152521.400000", "152523.400000", "152525.400000", "152527.400000", "152529.400000", "152531.400000", "152533.400000", "152535.400000", "152537.400000", "152539.400000", "152541.400000", "152543.400000", "152545.400000", "152547.400000", "152549.400000", "152551.400000", "152553.400000", "152555.400000", "152557.400000", "152559.400000", "152601.400000", "152603.400000", "152605.400000", "152607.400000", "152609.400000", "152611.400000", "152613.400000", "152615.400000", "152617.400000", "152619.400000", "152621.400000", "152623.400000", "152625.400000", "152627.400000", "152629.400000", "152631.400000", "152633.400000", "152635.400000", "152637.400000", "152639.400000", "152641.400000", "152643.400000", "152645.400000", "152647.400000", "152649.400000", "152651.400000", "152653.400000", "152655.400000", "152657.400000", "152659.400000", "152701.400000", "152703.400000", "152705.400000", "152707.400000", "152709.400000", "152711.400000", "152713.400000", "152715.400000", "152717.400000", "152719.400000", "152721.400000", "152723.400000", "152725.400000", "152727.400000", "152729.400000", "152731.400000", "152733.400000", "152735.400000", "152737.400000", "152739.400000", "152741.400000", "152743.400000", "152745.400000", "152747.400000", "152749.400000", "152751.400000", "152753.400000", "152755.400000", "152757.400000", "152759.400000", "152801.400000", "152803.400000", "152805.400000", "152807.400000", "152809.400000", "152811.400000", "152813.400000", "152815.400000", "152817.400000", "152819.400000", "152821.400000", "152823.400000", "152825.400000", "152827.400000", "152829.400000", "152831.400000", "152833.400000", "152835.400000", "152837.400000", "152839.400000", "152841.400000", "152843.400000", "152845.400000", "152847.400000", "152849.400000", "152851.400000", "152853.400000", "152855.400000", "152857.400000", "152859.400000", "152901.400000", "152903.400000", "152905.400000", "152907.400000", "152909.400000", "152911.400000", "152913.400000", "152915.400000", "152917.400000", "152919.400000", "152921.400000", "152923.400000", "152925.400000", "152927.400000", "152929.400000", "152931.400000", "152933.400000", "152935.400000", "152937.400000", "152939.400000", "152941.400000", "152943.400000", "152945.400000", "152947.400000"],
      "ContentTime": ["151423.648000", "151423.651000", "151423.654000", "151423.657000", "151423.659000", "151423.662000", "151423.664000", "151423.667000", "151423.669000", "151423.672000", "151423.674000", "151423.677000", "151423.680000", "151423.682000", "151423.685000", "151423.687000", "151423.690000", "151423.692000", "151423.695000", "151423.697000", "151423.700000", "151423.702000", "151423.705000", "151423.708000", "151423.710000", "151423.713000", "151423.715000", "151423.718000", "151423.721000", "151503.623000", "151503.625000", "151503.628000", "151503.630000", "151503.633000", "151503.644000", "151503.647000", "151503.649000", "151503.652000", "151503.654000", "151503.657000", "151503.660000", "151503.662000", "151503.665000", "151503.667000", "151503.670000", "151503.672000", "151503.675000", "151503.677000", "151503.680000", "151543.622000", "151543.625000", "151543.628000", "151543.630000", "151543.633000", "151543.636000", "151543.638000", "151543.641000", "151543.643000", "151543.646000", "151543.649000", "151543.651000", "151543.654000", "151543.656000", "151543.659000", "151543.662000", "151543.664000", "151543.667000", "151543.669000", "151543.672000", "151623.623000", "151623.625000", "151623.628000", "151623.630000", "151623.633000", "151623.635000", "151623.638000", "151623.641000", "151623.643000", "151623.646000", "151623.648000", "151623.651000", "151623.654000", "151623.656000", "151623.659000", "151623.661000", "151623.664000", "151623.666000", "151623.669000", "151623.671000", "151703.622000", "151703.624000", "151703.627000", "151703.629000", "151703.632000", "151703.634000", "151703.637000", "151703.640000", "151703.642000", "151703.645000", "151703.647000", "151703.650000", "151703.652000", "151703.655000", "151703.657000", "151703.660000", "151703.663000", "151703.665000", "151703.668000", "151703.670000", "151743.623000", "151743.625000", "151743.628000", "151743.634000", "151743.637000", "151743.639000", "151743.642000", "151743.645000", "151743.647000", "151743.650000", "151743.652000", "151743.655000", "151743.658000", "151743.660000", "151743.663000", "151743.665000", "151743.668000", "151743.670000", "151743.673000", "151743.675000", "151823.623000", "151823.625000", "151823.628000", "151823.631000", "151823.633000", "151823.636000", "151823.638000", "151823.641000", "151823.643000", "151823.646000", "151823.649000", "151823.651000", "151823.654000", "151823.656000", "151823.659000", "151823.662000", "151823.664000", "151823.667000", "151823.669000", "151823.672000", "151903.623000", "151903.640000", "151903.642000", "151903.645000", "151903.648000", "151903.650000", "151903.653000", "151903.655000", "151903.658000", "151903.660000", "151903.663000", "151903.665000", "151903.668000", "151903.670000", "151903.673000", "151903.675000", "151903.678000", "151903.680000", "151903.683000", "151903.685000", "151943.622000", "151943.625000", "151943.628000", "151943.630000", "151943.633000", "151943.635000", "151943.638000", "151943.640000", "151943.643000", "151943.646000", "151943.648000", "151943.651000", "151943.653000", "151943.656000", "151943.659000", "151943.661000", "151943.664000", "151943.666000", "151943.669000", "151943.671000", "152023.623000", "152023.625000", "152023.628000", "152023.631000", "152023.633000", "152023.636000", "152023.638000", "152023.641000", "152023.643000", "152023.646000", "152023.648000", "152023.651000", "152023.654000", "152023.656000", "152023.659000", "152023.661000", "152023.664000", "152023.666000", "152023.669000", "152023.672000", "152103.623000", "152103.626000", "152103.629000", "152103.632000", "152103.634000", "152103.637000", "152103.639000", "152103.642000", "152103.644000", "152103.647000", "152103.649000", "152103.652000", "152103.655000", "152103.657000", "152103.660000", "152103.663000", "152103.665000", "152103.668000", "152103.670000", "152103.673000", "152123.622000", "152123.625000", "152123.628000", "152123.630000", "152123.633000", "152123.636000", "152123.638000", "152123.641000", "152123.643000", "152123.646000", "152203.622000", "152203.626000", "152203.628000", "152203.631000", "152203.633000", "152203.636000", "152203.638000", "152203.641000", "152203.643000", "152203.646000", "152203.649000", "152203.651000", "152203.654000", "152203.657000", "152203.659000", "152203.662000", "152203.664000", "152203.667000", "152203.670000", "152203.672000", "152243.622000", "152243.625000", "152243.628000", "152243.630000", "152243.633000", "152243.636000", "152243.638000", "152243.641000", "152243.643000", "152243.646000", "152243.649000", "152243.651000", "152243.654000", "152243.656000", "152243.659000", "152243.661000", "152243.664000", "152243.667000", "152243.669000", "152243.672000", "152323.622000", "152323.626000", "152323.628000", "152323.631000", "152323.633000", "152323.636000", "152323.638000", "152323.641000", "152323.643000", "152323.646000", "152323.649000", "152323.651000", "152323.654000", "152323.657000", "152323.659000", "152323.662000", "152323.664000", "152323.667000", "152323.669000", "152323.672000", "152403.621000", "152403.625000", "152403.627000", "152403.630000", "152403.632000", "152403.635000", "152403.637000", "152403.640000", "152403.643000", "152403.645000", "152403.648000", "152403.650000", "152403.653000", "152403.655000", "152403.658000", "152403.660000", "152403.663000", "152403.666000", "152403.668000", "152403.671000", "152443.623000", "152443.626000", "152443.628000", "152443.631000", "152443.633000", "152443.636000", "152443.639000", "152443.641000", "152443.644000", "152443.646000", "152443.649000", "152443.651000", "152443.654000", "152443.657000", "152443.659000", "152443.662000", "152443.664000", "152443.667000", "152443.669000", "152443.672000", "152523.622000", "152523.625000", "152523.628000", "152523.630000", "152523.633000", "152523.647000", "152523.650000", "152523.652000", "152523.655000", "152523.658000", "152523.660000", "152523.663000", "152523.665000", "152523.668000", "152523.670000", "152523.673000", "152523.676000", "152523.678000", "152523.681000", "152523.683000", "152603.623000", "152603.625000", "152603.628000", "152603.631000", "152603.633000", "152603.636000", "152603.638000", "152603.641000", "152603.643000", "152603.646000", "152603.649000", "152603.651000", "152603.654000", "152603.656000", "152603.659000", "152603.661000", "152603.664000", "152603.666000", "152603.669000", "152603.672000", "152643.623000", "152643.626000", "152643.628000", "152643.631000", "152643.633000", "152643.636000", "152643.639000", "152643.641000", "152643.644000", "152643.646000", "152643.649000", "152643.651000", "152643.654000", "152643.656000", "152643.659000", "152643.661000", "152643.664000", "152643.667000", "152643.669000", "152643.672000", "152723.623000", "152723.626000", "152723.628000", "152723.631000", "152723.633000", "152723.636000", "152723.639000", "152723.641000", "152723.643000", "152723.646000", "152723.649000", "152723.651000", "152723.654000", "152723.656000", "152723.659000", "152723.662000", "152723.664000", "152723.667000", "152723.669000", "152723.672000", "152803.623000", "152803.625000", "152803.628000", "152803.631000", "152803.633000", "152803.636000", "152803.638000", "152803.641000", "152803.643000", "152803.646000", "152803.649000", "152803.651000", "152803.654000", "152803.656000", "152803.659000", "152803.661000", "152803.664000", "152803.667000", "152803.669000", "152803.672000", "152843.622000", "152843.625000", "152843.627000", "152843.630000", "152843.632000", "152843.638000", "152843.640000", "152843.643000", "152843.645000", "152843.648000", "152843.651000", "152843.653000", "152843.656000", "152843.658000", "152843.661000", "152843.663000", "152843.666000", "152843.668000", "152843.671000", "152843.673000", "152923.623000", "152923.626000", "152923.628000", "152923.631000", "152923.633000", "152923.636000", "152923.638000", "152923.641000", "152923.643000", "152923.646000", "152923.649000", "152923.651000", "152923.654000", "152923.656000", "152923.659000", "152923.661000", "152923.664000", "152923.667000", "152923.669000", "152923.672000", "152950.894000", "152950.897000", "152950.900000", "152950.903000", "152950.905000", "152950.908000", "152950.910000", "152950.913000", "152950.915000", "152950.918000", "152950.921000", "152950.923000", "152950.926000", "152950.928000"],
