{
  "AcquisitionMatrixPE": 96,
  "AcquisitionNumber": 1,
  "AcquisitionTime": "12:34:4.025000",
  "BandwidthPerPixelPhaseEncode": 20.425,
  "BaseResolution": 96,
  "BodyPartExamined": "BRAIN",
  "CoilCombinationMethod": "Sum of Squares",
  "ConsistencyInfo": "N4_VE11C_LATEST_20160120",
  "ConversionSoftware": "dcm2niix",
  "ConversionSoftwareVersion": "v1.0.20211006",
  "DerivedVendorReportedEchoSpacing": 0.000509996,
  "DeviceSerialNumber": "166054",
  "DwellTime": 2.3e-06,
  "EchoTime": 0.03,
  "EchoTrainLength": 96,
  "EffectiveEchoSpacing": 0.000509996,
  "FlipAngle": 75,
  "HeudiconvVersion": "0.11.3+d20220512",
  "ImageComments": "Unaliased MB2/PE2",
  "ImageOrientationPatientDICOM": [0.992321, -0.0611908, 0.10749, 0.0997466, 0.909782, -0.402924],
  "ImageOrientationText": "Tra>Cor(-24.3)>Sag(4.2)",
  "ImageType": [
    "ORIGINAL",
    "PRIMARY",
    "M",
    "MB",
    "ND",
    "MOSAIC"
],
  "ImagingFrequency": 123.26,
  "InPlanePhaseEncodingDirectionDICOM": "COL",
  "InstitutionAddress": "Street StreetNo,City,District,IL,ZIP",
  "InstitutionName": "Weizmann Institute",
  "InstitutionalDepartmentName": "Department",
  "MRAcquisitionType": "2D",
  "MagneticFieldStrength": 3,
  "Manufacturer": "Siemens",
  "ManufacturersModelName": "Prisma",
  "MatrixCoilMode": "SENSE",
  "Modality": "MR",
  "MultibandAccelerationFactor": 2,
  "PartialFourier": 1,
  "PatientPosition": "HFS",
  "PercentPhaseFOV": 100,
  "PercentSampling": 100,
  "PhaseEncodingDirection": "j-",
  "PhaseEncodingSteps": 96,
  "PhaseResolution": 1,
  "PixelBandwidth": 2265,
  "ProcedureStepDescription": "Weizmann^Sobel",
  "ProtocolName": "EPI_PSAP_iso2.5",
  "PulseSequenceDetails": "%CustomerSeq%\\cmrr_mbep2d_bold",
  "ReceiveCoilActiveElements": "HEA;HEP",
  "ReceiveCoilName": "Head_32",
  "ReconMatrixPE": 96,
  "RepetitionTime": 2,
  "SAR": 0.11574,
  "ScanOptions": "FS",
  "ScanningSequence": "EP",
  "SequenceName": "epfid2d1_96",
  "SequenceVariant": "SK\\SS",
  "SeriesDescription": "EPI_PSAP_iso2.5",
  "SeriesNumber": 6,
  "ShimSetting": [5910, -4037, -1917, 420, 112, -14, -39, -38],
  "SliceThickness": 2.5,
  "SliceTiming": [0, 0.92, 1.8375, 0.7775, 1.6975, 0.6375, 1.555, 0.495, 1.415, 0.355, 1.2725, 0.2125, 1.1325, 0.07, 0.99, 1.91, 0.85, 1.7675, 0.7075, 1.6275, 0.565, 1.485, 0.425, 1.3425, 0.2825, 1.2025, 0.1425, 1.06, 0, 0.92, 1.8375, 0.7775, 1.6975, 0.6375, 1.555, 0.495, 1.415, 0.355, 1.2725, 0.2125, 1.1325, 0.07, 0.99, 1.91, 0.85, 1.7675, 0.7075, 1.6275, 0.565, 1.485, 0.425, 1.3425, 0.2825, 1.2025, 0.1425, 1.06],
  "SoftwareVersions": "syngo MR E11",
  "SpacingBetweenSlices": 2.5,
  "StationName": "AWP166054",
  "TaskName": "PSAP",
  "TotalReadoutTime": 0.0484496,
  "TxRefAmp": 260.2,
  "VendorReportedEchoSpacing": 0.00051,
  "WipMemBlock": "d8b18854-991e-4d98-9109-5987e0878995||Sequence: R016 ve11c/master r/e634e98; Dec 19 2017 11:00:25 by eja",
  "dcmmeta_affine": [
    [-2.4808032512664795, 0.24936652183532715, 0.18284311890602112, 104.1173324584961],
    [0.1529770940542221, 2.274454116821289, -1.0263804197311401, -84.18754577636719],
    [0.26872527599334717, 1.0073108673095703, 2.2722480297088623, -131.4656524658203],
    [0.0, 0.0, 0.0, 1.0]
],
  "dcmmeta_reorient_transform": [
    [0.0, -1.0, 0.0, 95.0],
    [1.0, 0.0, 0.0, 0.0],
    [0.0, 0.0, 1.0, 0.0],
    [0.0, 0.0, 0.0, 1.0]
],
  "dcmmeta_shape": [96, 96, 56, 495],
  "dcmmeta_slice_dim": 2,
  "dcmmeta_version": 0.6,
  "global": {
    "const": {
      "AcquisitionMatrix": [96, 0, 0, 96],
      "AngioFlag": "N",
      "BitsAllocated": 16,
      "BitsStored": 16,
      "BodyPartExamined": "BRAIN",
      "Columns": 768,
      "EchoNumbers": 1,
      "EchoTime": 30.0,
      "EchoTrainLength": 96,
      "FlipAngle": 75.0,
      "HighBit": 15,
      "ImageOrientationPatient": [0.99232129731214, -0.0611908400488, 0.10749011114919, 0.09974660841964, 0.90978161473473, -0.402924344759],
      "ImagePositionPatient": [-1045.1441964796, -844.70183882785, 212.3936281814],
      "ImageType": [
        "ORIGINAL",
        "PRIMARY",
        "M",
        "MB",
        "ND",
        "MOSAIC"
],
      "ImagedNucleus": "1H",
      "ImagingFrequency": 123.260253,
      "InPlanePhaseEncodingDirection": "COL",
      "MRAcquisitionType": "2D",
      "MagneticFieldStrength": 3.0,
      "Manufacturer": "SIEMENS",
      "ManufacturerModelName": "Prisma",
      "Modality": "MR",
      "NumberOfAverages": 1.0,
      "NumberOfPhaseEncodingSteps": 96,
      "PercentPhaseFieldOfView": 100.0,
      "PercentSampling": 100.0,
      "PerformedProcedureStepStartTime": "114705.480000",
      "PhotometricInterpretation": "MONOCHROME2",
      "PixelBandwidth": 2265.0,
      "PixelRepresentation": 0,
      "PixelSpacing": [2.5, 2.5],
      "ProtocolName": "EPI_PSAP_iso2.5",
      "RepetitionTime": 2000.0,
      "Rows": 768,
      "SAR": 0.11574001655548,
      "SamplesPerPixel": 1,
      "ScanOptions": "FS",
      "ScanningSequence": "EP",
      "SequenceName": "epfid2d1_96",
      "SequenceVariant": [
        "SK",
        "SS"
],
      "SeriesDescription": "EPI_PSAP_iso2.5",
      "SeriesNumber": 6,
      "SeriesTime": "123455.227000",
      "SliceLocation": -77.310803918588,
      "SliceThickness": 2.5,
      "SmallestImagePixelValue": 0,
      "SoftwareVersions": "syngo MR E11",
      "SpacingBetweenSlices": 2.4999999477999,
      "SpecificCharacterSet": "ISO_IR 100",
      "StudyID": "2",
      "StudyTime": "114705.382000",
      "TransmitCoilName": "Body",
      "VariableFlipAngleFlag": "N",
      "WindowCenterWidthExplanation": "Algo1",
      "dBdt": 0.0},
    "slices": {}
  },
  "time": {
    "samples": {
      "AcquisitionNumber": [1, 2, 3, 4, 5, 6, 7, 8, 9, 10, 11, 12, 13, 14, 15, 16, 17, 18, 19, 20, 21, 22, 23, 24, 25, 26, 27, 28, 29, 30, 31, 32, 33, 34, 35, 36, 37, 38, 39, 40, 41, 42, 43, 44, 45, 46, 47, 48, 49, 50, 51, 52, 53, 54, 55, 56, 57, 58, 59, 60, 61, 62, 63, 64, 65, 66, 67, 68, 69, 70, 71, 72, 73, 74, 75, 76, 77, 78, 79, 80, 81, 82, 83, 84, 85, 86, 87, 88, 89, 90, 91, 92, 93, 94, 95, 96, 97, 98, 99, 100, 101, 102, 103, 104, 105, 106, 107, 108, 109, 110, 111, 112, 113, 114, 115, 116, 117, 118, 119, 120, 121, 122, 123, 124, 125, 126, 127, 128, 129, 130, 131, 132, 133, 134, 135, 136, 137, 138, 139, 140, 141, 142, 143, 144, 145, 146, 147, 148, 149, 150, 151, 152, 153, 154, 155, 156, 157, 158, 159, 160, 161, 162, 163, 164, 165, 166, 167, 168, 169, 170, 171, 172, 173, 174, 175, 176, 177, 178, 179, 180, 181, 182, 183, 184, 185, 186, 187, 188, 189, 190, 191, 192, 193, 194, 195, 196, 197, 198, 199, 200, 201, 202, 203, 204, 205, 206, 207, 208, 209, 210, 211, 212, 213, 214, 215, 216, 217, 218, 219, 220, 221, 222, 223, 224, 225, 226, 227, 228, 229, 230, 231, 232, 233, 234, 235, 236, 237, 238, 239, 240, 241, 242, 243, 244, 245, 246, 247, 248, 249, 250, 251, 252, 253, 254, 255, 256, 257, 258, 259, 260, 261, 262, 263, 264, 265, 266, 267, 268, 269, 270, 271, 272, 273, 274, 275, 276, 277, 278, 279, 280, 281, 282, 283, 284, 285, 286, 287, 288, 289, 290, 291, 292, 293, 294, 295, 296, 297, 298, 299, 300, 301, 302, 303, 304, 305, 306, 307, 308, 309, 310, 311, 312, 313, 314, 315, 316, 317, 318, 319, 320, 321, 322, 323, 324, 325, 326, 327, 328, 329, 330, 331, 332, 333, 334, 335, 336, 337, 338, 339, 340, 341, 342, 343, 344, 345, 346, 347, 348, 349, 350, 351, 352, 353, 354, 355, 356, 357, 358, 359, 360, 361, 362, 363, 364, 365, 366, 367, 368, 369, 370, 371, 372, 373, 374, 375, 376, 377, 378, 379, 380, 381, 382, 383, 384, 385, 386, 387, 388, 389, 390, 391, 392, 393, 394, 395, 396, 397, 398, 399, 400, 401, 402, 403, 404, 405, 406, 407, 408, 409, 410, 411, 412, 413, 414, 415, 416, 417, 418, 419, 420, 421, 422, 423, 424, 425, 426, 427, 428, 429, 430, 431, 432, 433, 434, 435, 436, 437, 438, 439, 440, 441, 442, 443, 444, 445, 446, 447, 448, 449, 450, 451, 452, 453, 454, 455, 456, 457, 458, 459, 460, 461, 462, 463, 464, 465, 466, 467, 468, 469, 470, 471, 472, 473, 474, 475, 476, 477, 478, 479, 480, 481, 482, 483, 484, 485, 486, 487, 488, 489, 490, 491, 492, 493, 494, 495],
      "AcquisitionTime": ["123404.025000", "123406.025000", "123408.025000", "123410.025000", "123412.025000", "123414.025000", "123416.025000", "123418.025000", "123420.025000", "123422.025000", "123424.025000", "123426.025000", "123428.025000", "123430.025000", "123432.025000", "123434.025000", "123436.025000", "123438.025000", "123440.025000", "123442.025000", "123444.025000", "123446.025000", "123448.025000", "123450.025000", "123452.025000", "123454.025000", "123456.025000", "123458.025000", "123500.025000", "123502.025000", "123504.025000", "123506.025000", "123508.025000", "123510.025000", "123512.025000", "123514.025000", "123516.025000", "123518.025000", "123520.025000", "123522.025000", "123524.025000", "123526.025000", "123528.025000", "123530.025000", "123532.025000", "123534.025000", "123536.025000", "123538.025000", "123540.025000", "123542.025000", "123544.025000", "123546.025000", "123548.025000", "123550.025000", "123552.025000", "123554.025000", "123556.025000", "123558.025000", "123600.025000", "123602.025000", "123604.025000", "123606.025000", "123608.025000", "123610.025000", "123612.025000", "123614.025000", "123616.025000", "123618.025000", "123620.025000", "123622.025000", "123624.025000", "123626.025000", "123628.025000", "123630.025000", "123632.025000", "123634.025000", "123636.025000", "123638.025000", "123640.025000", "123642.025000", "123644.025000", "123646.025000", "123648.025000", "123650.025000", "123652.025000", "123654.025000", "123656.025000", "123658.025000", "123700.025000", "123702.025000", "123704.025000", "123706.025000", "123708.025000", "123710.025000", "123712.025000", "123714.025000", "123716.025000", "123718.025000", "123720.025000", "123722.025000", "123724.025000", "123726.025000", "123728.025000", "123730.025000", "123732.025000", "123734.025000", "123736.025000", "123738.025000", "123740.025000", "123742.025000", "123744.025000", "123746.025000", "123748.025000", "123750.025000", "123752.025000", "123754.025000", "123756.025000", "123758.025000", "123800.025000", "123802.025000", "123804.025000", "123806.025000", "123808.025000", "123810.025000", "123812.025000", "123814.025000", "123816.025000", "123818.025000", "123820.025000", "123822.025000", "123824.025000", "123826.025000", "123828.025000", "123830.025000", "123832.025000", "123834.025000", "123836.025000", "123838.025000", "123840.025000", "123842.025000", "123844.025000", "123846.025000", "123848.025000", "123850.025000", "123852.025000", "123854.025000", "123856.025000", "123858.025000", "123900.025000", "123902.025000", "123904.025000", "123906.025000", "123908.025000", "123910.025000", "123912.025000", "123914.025000", "123916.025000", "123918.025000", "123920.025000", "123922.025000", "123924.025000", "123926.025000", "123928.025000", "123930.025000", "123932.025000", "123934.025000", "123936.025000", "123938.025000", "123940.025000", "123942.025000", "123944.025000", "123946.025000", "123948.025000", "123950.025000", "123952.025000", "123954.025000", "123956.025000", "123958.025000", "124000.025000", "124002.025000", "124004.025000", "124006.025000", "124008.025000", "124010.025000", "124012.025000", "124014.025000", "124016.025000", "124018.025000", "124020.025000", "124022.025000", "124024.025000", "124026.025000", "124028.025000", "124030.025000", "124032.025000", "124034.025000", "124036.025000", "124038.025000", "124040.025000", "124042.025000", "124044.025000", "124046.025000", "124048.025000", "124050.025000", "124052.025000", "124054.025000", "124056.025000", "124058.025000", "124100.025000", "124102.025000", "124104.025000", "124106.025000", "124108.025000", "124110.025000", "124112.025000", "124114.025000", "124116.025000", "124118.025000", "124120.025000", "124122.025000", "124124.025000", "124126.025000", "124128.025000", "124130.025000", "124132.025000", "124134.025000", "124136.025000", "124138.025000", "124140.025000", "124142.025000", "124144.025000", "124146.025000", "124148.025000", "124150.025000", "124152.025000", "124154.025000", "124156.025000", "124158.025000", "124200.025000", "124202.025000", "124204.025000", "124206.025000", "124208.025000", "124210.025000", "124212.025000", "124214.025000", "124216.025000", "124218.025000", "124220.025000", "124222.025000", "124224.025000", "124226.025000", "124228.025000", "124230.025000", "124232.025000", "124234.025000", "124236.025000", "124238.025000", "124240.025000", "124242.025000", "124244.025000", "124246.025000", "124248.025000", "124250.025000", "124252.025000", "124254.025000", "124256.025000", "124258.025000", "124300.025000", "124302.025000", "124304.025000", "124306.025000", "124308.025000", "124310.025000", "124312.025000", "124314.025000", "124316.025000", "124318.025000", "124320.025000", "124322.025000", "124324.025000", "124326.025000", "124328.025000", "124330.025000", "124332.025000", "124334.025000", "124336.025000", "124338.025000", "124340.025000", "124342.025000", "124344.025000", "124346.025000", "124348.025000", "124350.025000", "124352.025000", "124354.025000", "124356.025000", "124358.025000", "124400.025000", "124402.025000", "124404.025000", "124406.025000", "124408.025000", "124410.025000", "124412.025000", "124414.025000", "124416.025000", "124418.025000", "124420.025000", "124422.025000", "124424.025000", "124426.025000", "124428.025000", "124430.025000", "124432.025000", "124434.025000", "124436.025000", "124438.025000", "124440.025000", "124442.025000", "124444.025000", "124446.025000", "124448.025000", "124450.025000", "124452.025000", "124454.025000", "124456.025000", "124458.025000", "124500.025000", "124502.025000", "124504.025000", "124506.025000", "124508.025000", "124510.025000", "124512.025000", "124514.025000", "124516.025000", "124518.025000", "124520.025000", "124522.025000", "124524.025000", "124526.025000", "124528.025000", "124530.025000", "124532.025000", "124534.025000", "124536.025000", "124538.025000", "124540.025000", "124542.025000", "124544.025000", "124546.025000", "124548.025000", "124550.025000", "124552.025000", "124554.025000", "124556.025000", "124558.025000", "124600.025000", "124602.025000", "124604.025000", "124606.025000", "124608.025000", "124610.025000", "124612.025000", "124614.025000", "124616.025000", "124618.025000", "124620.025000", "124622.025000", "124624.025000", "124626.025000", "124628.025000", "124630.025000", "124632.025000", "124634.025000", "124636.025000", "124638.025000", "124640.025000", "124642.025000", "124644.025000", "124646.025000", "124648.025000", "124650.025000", "124652.025000", "124654.025000", "124656.025000", "124658.025000", "124700.025000", "124702.025000", "124704.025000", "124706.025000", "124708.025000", "124710.025000", "124712.025000", "124714.025000", "124716.025000", "124718.025000", "124720.025000", "124722.025000", "124724.025000", "124726.025000", "124728.025000", "124730.025000", "124732.025000", "124734.025000", "124736.025000", "124738.025000", "124740.025000", "124742.025000", "124744.025000", "124746.025000", "124748.025000", "124750.025000", "124752.025000", "124754.025000", "124756.025000", "124758.025000", "124800.025000", "124802.025000", "124804.025000", "124806.025000", "124808.025000", "124810.025000", "124812.025000", "124814.025000", "124816.025000", "124818.025000", "124820.025000", "124822.025000", "124824.025000", "124826.025000", "124828.025000", "124830.025000", "124832.025000", "124834.025000", "124836.025000", "124838.025000", "124840.025000", "124842.025000", "124844.025000", "124846.025000", "124848.025000", "124850.025000", "124852.025000", "124854.025000", "124856.025000", "124858.025000", "124900.025000", "124902.025000", "124904.025000", "124906.025000", "124908.025000", "124910.025000", "124912.025000", "124914.025000", "124916.025000", "124918.025000", "124920.025000", "124922.025000", "124924.025000", "124926.025000", "124928.025000", "124930.025000", "124932.025000", "124934.025000", "124936.025000", "124938.025000", "124940.025000", "124942.025000", "124944.025000", "124946.025000", "124948.025000", "124950.025000", "124952.025000", "124954.025000", "124956.025000", "124958.025000", "125000.025000", "125002.025000", "125004.025000", "125006.025000", "125008.025000", "125010.025000", "125012.025000", "125014.025000", "125016.025000", "125018.025000", "125020.025000", "125022.025000", "125024.025000", "125026.025000", "125028.025000", "125030.025000", "125032.025000"],
      "ContentTime": ["123455.229000", "123455.232000", "123455.235000", "123455.238000", "123455.240000", "123455.246000", "123455.250000", "123455.258000", "123455.260000", "123455.263000", "123455.265000", "123455.268000", "123455.271000", "123455.273000", "123455.276000", "123455.278000", "123455.281000", "123455.283000", "123455.286000", "123455.288000", "123455.291000", "123455.293000", "123455.296000", "123455.298000", "123455.301000", "123535.178000", "123535.181000", "123535.184000", "123535.187000", "123535.190000", "123535.192000", "123535.195000", "123535.197000", "123535.200000", "123535.202000", "123535.205000", "123535.208000", "123535.210000", "123535.219000", "123535.222000", "123535.224000", "123535.227000", "123535.229000", "123535.232000", "123535.234000", "123615.180000", "123615.182000", "123615.185000", "123615.188000", "123615.190000", "123615.193000", "123615.195000", "123615.198000", "123615.200000", "123615.203000", "123615.206000", "123615.208000", "123615.211000", "123615.213000", "123615.216000", "123615.218000", "123615.221000", "123615.223000", "123615.226000", "123615.228000", "123655.180000", "123655.182000", "123655.185000", "123655.188000", "123655.191000", "123655.193000", "123655.196000", "123655.198000", "123655.201000", "123655.203000", "123655.206000", "123655.208000", "123655.211000", "123655.213000", "123655.216000", "123655.219000", "123655.221000", "123655.224000", "123655.226000", "123655.229000", "123735.178000", "123735.181000", "123735.184000", "123735.186000", "123735.189000", "123735.192000", "123735.194000", "123735.197000", "123735.199000", "123735.202000", "123735.204000", "123735.207000", "123735.209000", "123735.212000", "123735.215000", "123735.217000", "123735.220000", "123735.222000", "123735.225000", "123735.227000", "123815.178000", "123815.181000", "123815.184000", "123815.187000", "123815.189000", "123815.192000", "123815.195000", "123815.197000", "123815.200000", "123815.202000", "123815.205000", "123815.207000", "123815.210000", "123815.213000", "123815.215000", "123815.218000", "123815.220000", "123815.223000", "123815.226000", "123815.228000", "123855.179000", "123855.182000", "123855.185000", "123855.187000", "123855.209000", "123855.212000", "123855.214000", "123855.217000", "123855.219000", "123855.222000", "123855.225000", "123855.227000", "123855.230000", "123855.232000", "123855.235000", "123855.237000", "123855.240000", "123855.242000", "123855.245000", "123855.248000", "123935.180000", "123935.182000", "123935.185000", "123935.187000", "123935.190000", "123935.209000", "123935.211000", "123935.214000", "123935.216000", "123935.219000", "123935.221000", "123935.224000", "123935.226000", "123935.229000", "123935.231000", "123935.234000", "123935.236000", "123935.239000", "123935.242000", "123935.244000", "124015.178000", "124015.182000", "124015.184000", "124015.187000", "124015.189000", "124015.192000", "124015.195000", "124015.197000", "124015.200000", "124015.202000", "124015.205000", "124015.207000", "124015.210000", "124015.213000", "124015.215000", "124015.218000", "124015.220000", "124015.223000", "124015.226000", "124015.228000", "124055.179000", "124055.182000", "124055.185000", "124055.187000", "124055.190000", "124055.193000", "124055.195000", "124055.198000", "124055.200000", "124055.203000", "124055.206000", "124055.208000", "124055.211000", "124055.214000", "124055.216000", "124055.219000", "124055.221000", "124055.224000", "124055.226000", "124055.229000", "124135.179000", "124135.182000", "124135.185000", "124135.188000", "124135.198000", "124135.201000", "124135.203000", "124135.206000", "124135.208000", "124135.211000", "124135.213000", "124135.216000", "124135.218000", "124135.221000", "124135.224000", "124135.226000", "124135.229000", "124135.231000", "124135.234000", "124135.237000", "124215.179000", "124215.182000", "124215.184000", "124215.187000", "124215.189000", "124215.192000", "124215.195000", "124215.197000", "124215.200000", "124215.202000", "124215.205000", "124215.208000", "124215.210000", "124215.213000", "124215.215000", "124215.218000", "124215.221000", "124215.223000", "124215.226000", "124215.228000", "124255.178000", "124255.182000", "124255.184000", "124255.187000", "124255.189000", "124255.192000", "124255.195000", "124255.197000", "124255.200000", "124255.202000", "124255.205000", "124255.208000", "124255.210000", "124255.213000", "124255.215000", "124255.218000", "124255.221000", "124255.223000", "124255.226000", "124255.228000", "124335.180000", "124335.183000", "124335.185000", "124335.188000", "124335.190000", "124335.193000", "124335.195000", "124335.198000", "124335.200000", "124335.203000", "124335.206000", "124335.208000", "124335.211000", "124335.214000", "124335.216000", "124335.219000", "124335.221000", "124335.224000", "124335.226000", "124335.229000", "124415.179000", "124415.181000", "124415.184000", "124415.187000", "124415.189000", "124415.216000", "124415.218000", "124415.221000", "124415.224000", "124415.226000", "124415.229000", "124415.231000", "124415.234000", "124415.237000", "124415.239000", "124415.242000", "124415.244000", "124415.247000", "124415.250000", "124415.252000", "124455.178000", "124455.181000", "124455.184000", "124455.186000", "124455.189000", "124455.192000", "124455.195000", "124455.197000", "124455.200000", "124455.203000", "124455.205000", "124455.208000", "124455.211000", "124455.213000", "124455.216000", "124455.218000", "124455.221000", "124455.223000", "124455.226000", "124455.228000", "124535.179000", "124535.182000", "124535.185000", "124535.187000", "124535.190000", "124535.207000", "124535.210000", "124535.212000", "124535.215000", "124535.217000", "124535.220000", "124535.223000", "124535.225000", "124535.228000", "124535.230000", "124535.233000", "124535.235000", "124535.238000", "124535.240000", "124535.243000", "124615.180000", "124615.183000", "124615.185000", "124615.188000", "124615.190000", "124615.193000", "124615.196000", "124615.198000", "124615.201000", "124615.203000", "124615.206000", "124615.208000", "124615.211000", "124615.214000", "124615.216000", "124615.219000", "124615.221000", "124615.224000", "124615.227000", "124615.229000", "124655.179000", "124655.181000", "124655.184000", "124655.187000", "124655.189000", "124655.192000", "124655.194000", "124655.197000", "124655.199000", "124655.202000", "124655.205000", "124655.207000", "124655.210000", "124655.212000", "124655.215000", "124655.218000", "124655.220000", "124655.223000", "124655.225000", "124655.228000", "124735.180000", "124735.183000", "124735.185000", "124735.188000", "124735.190000", "124735.193000", "124735.195000", "124735.198000", "124735.201000", "124735.203000", "124735.206000", "124735.208000", "124735.211000", "124735.213000", "124735.216000", "124735.218000", "124735.221000", "124735.224000", "124735.226000", "124735.229000", "124815.179000", "124815.182000", "124815.185000", "124815.188000", "124815.190000", "124815.193000", "124815.196000", "124815.199000", "124815.201000", "124815.204000", "124815.206000", "124815.209000", "124815.211000", "124815.214000", "124815.217000", "124815.219000", "124815.222000", "124815.224000", "124815.227000", "124815.230000", "124855.179000", "124855.181000", "124855.184000", "124855.187000", "124855.189000", "124855.192000", "124855.194000", "124855.197000", "124855.199000", "124855.202000", "124855.205000", "124855.207000", "124855.210000", "124855.212000", "124855.215000", "124855.217000", "124855.220000", "124855.231000", "124855.233000", "124855.236000", "124935.179000", "124935.181000", "124935.184000", "124935.186000", "124935.189000", "124935.192000", "124935.195000", "124935.197000", "124935.200000", "124935.202000", "124935.205000", "124935.208000", "124935.210000", "124935.213000", "124935.242000", "124935.245000", "124935.247000", "124935.250000", "124935.253000", "124935.255000", "125015.180000", "125015.182000", "125015.185000", "125015.188000", "125015.190000", "125015.193000", "125015.195000", "125015.198000", "125015.200000", "125015.203000", "125015.206000", "125015.208000", "125015.211000", "125015.213000", "125015.216000", "125015.218000", "125015.221000", "125015.224000", "125015.226000", "125015.229000", "125036.850000", "125036.853000", "125036.856000", "125036.858000", "125036.861000", "125036.863000", "125036.866000", "125036.868000", "125036.871000", "125036.874000"],
