{
  "AcquisitionMatrixPE": 96,
  "AcquisitionNumber": 1,
  "AcquisitionTime": "15:31:5.392500",
  "BandwidthPerPixelPhaseEncode": 20.425,
  "BaseResolution": 96,
  "BodyPartExamined": "BRAIN",
  "CoilCombinationMethod": "Sum of Squares",
  "ConsistencyInfo": "N4_VE11C_LATEST_20160120",
  "ConversionSoftware": "dcm2niix",
  "ConversionSoftwareVersion": "v1.0.20211006",
  "DerivedVendorReportedEchoSpacing": 0.000509996,
  "DeviceSerialNumber": "166054",
  "DwellTime": 2.3e-06,
  "EchoTime": 0.03,
  "EchoTrainLength": 96,
  "EffectiveEchoSpacing": 0.000509996,
  "FlipAngle": 75,
  "HeudiconvVersion": "0.11.3+d20220512",
  "ImageComments": "Unaliased MB2/PE2",
  "ImageOrientationPatientDICOM": [0.999628, 0.0197857, 0.0187748, -0.0139583, 0.962453, -0.271089],
  "ImageOrientationText": "Tra>Cor(-15.7)>Sag(1.3)",
  "ImageType": [
    "ORIGINAL",
    "PRIMARY",
    "M",
    "MB",
    "ND",
    "MOSAIC"
],
  "ImagingFrequency": 123.26,
  "InPlanePhaseEncodingDirectionDICOM": "COL",
  "InstitutionAddress": "Street StreetNo,City,District,IL,ZIP",
  "InstitutionName": "Weizmann Institute",
  "InstitutionalDepartmentName": "Department",
  "MRAcquisitionType": "2D",
  "MagneticFieldStrength": 3,
  "Manufacturer": "Siemens",
  "ManufacturersModelName": "Prisma",
  "MatrixCoilMode": "SENSE",
  "Modality": "MR",
  "MultibandAccelerationFactor": 2,
  "PartialFourier": 1,
  "PatientPosition": "HFS",
  "PercentPhaseFOV": 100,
  "PercentSampling": 100,
  "PhaseEncodingDirection": "j-",
  "PhaseEncodingSteps": 96,
  "PhaseResolution": 1,
  "PixelBandwidth": 2265,
  "ProcedureStepDescription": "Weizmann^Sobel",
  "ProtocolName": "EPI_PSAP_iso2.5",
  "PulseSequenceDetails": "%CustomerSeq%\\cmrr_mbep2d_bold",
  "ReceiveCoilActiveElements": "HEA;HEP",
  "ReceiveCoilName": "Head_32",
  "ReconMatrixPE": 96,
  "RepetitionTime": 2,
  "SAR": 0.104982,
  "ScanOptions": "FS",
  "ScanningSequence": "EP",
  "SequenceName": "epfid2d1_96",
  "SequenceVariant": "SK\\SS",
  "SeriesDescription": "EPI_PSAP_iso2.5",
  "SeriesNumber": 6,
  "ShimSetting": [5904, -4047, -1880, 582, 121, 179, 52, 41],
  "SliceThickness": 2.5,
  "SliceTiming": [0, 0.92, 1.8375, 0.7775, 1.6975, 0.6375, 1.555, 0.495, 1.415, 0.355, 1.2725, 0.2125, 1.1325, 0.07, 0.99, 1.91, 0.8475, 1.7675, 0.7075, 1.6275, 0.565, 1.485, 0.425, 1.3425, 0.2825, 1.2025, 0.1425, 1.06, 0, 0.92, 1.8375, 0.7775, 1.6975, 0.6375, 1.555, 0.495, 1.415, 0.355, 1.2725, 0.2125, 1.1325, 0.07, 0.99, 1.91, 0.8475, 1.7675, 0.7075, 1.6275, 0.565, 1.485, 0.425, 1.3425, 0.2825, 1.2025, 0.1425, 1.06],
  "SoftwareVersions": "syngo MR E11",
  "SpacingBetweenSlices": 2.5,
  "StationName": "AWP166054",
  "TaskName": "PSAP",
  "TotalReadoutTime": 0.0484496,
  "TxRefAmp": 236.1,
  "VendorReportedEchoSpacing": 0.00051,
  "WipMemBlock": "9a6785c1-cbb6-41f5-b837-d90b5aabc1fe||Sequence: R016 ve11c/master r/e634e98; Dec 19 2017 11:00:25 by eja",
  "dcmmeta_affine": [
    [-2.499069929122925, -0.03489585220813751, 0.058584004640579224, 121.34078979492188],
    [-0.04946426674723625, 2.406132459640503, -0.6768164038658142, -88.95722198486328],
    [0.046937115490436554, 0.6777237057685852, 2.4059276580810547, -110.60926818847656],
    [0.0, 0.0, 0.0, 1.0]
],
  "dcmmeta_reorient_transform": [
    [0.0, -1.0, 0.0, 95.0],
    [1.0, 0.0, 0.0, 0.0],
    [0.0, 0.0, 1.0, 0.0],
    [0.0, 0.0, 0.0, 1.0]
],
  "dcmmeta_shape": [96, 96, 56, 499],
  "dcmmeta_slice_dim": 2,
  "dcmmeta_version": 0.6,
  "global": {
    "const": {
      "AcquisitionMatrix": [96, 0, 0, 96],
      "AngioFlag": "N",
      "BitsAllocated": 16,
      "BitsStored": 16,
      "BodyPartExamined": "BRAIN",
      "Columns": 768,
      "EchoNumbers": 1,
      "EchoTime": 30.0,
      "EchoTrainLength": 96,
      "FlipAngle": 75.0,
      "HighBit": 15,
      "ImageOrientationPatient": [0.99962794627968, 0.0197857065515, 0.01877484575006, -0.0139583415665, 0.96245293924119, -0.2710894768277],
      "ImagePositionPatient": [-945.98814847421, -964.70581573552, 165.71877282427],
      "ImageType": [
        "ORIGINAL",
        "PRIMARY",
        "M",
        "MB",
        "ND",
        "MOSAIC"
],
      "ImagedNucleus": "1H",
      "ImagingFrequency": 123.259981,
      "InPlanePhaseEncodingDirection": "COL",
      "MRAcquisitionType": "2D",
      "MagneticFieldStrength": 3.0,
      "Manufacturer": "SIEMENS",
      "ManufacturerModelName": "Prisma",
      "Modality": "MR",
      "NumberOfAverages": 1.0,
      "NumberOfPhaseEncodingSteps": 96,
      "PercentPhaseFieldOfView": 100.0,
      "PercentSampling": 100.0,
      "PerformedProcedureStepStartTime": "145715.026000",
      "PhotometricInterpretation": "MONOCHROME2",
      "PixelBandwidth": 2265.0,
      "PixelRepresentation": 0,
      "PixelSpacing": [2.5, 2.5],
      "ProtocolName": "EPI_PSAP_iso2.5",
      "RepetitionTime": 2000.0,
      "Rows": 768,
      "SAR": 0.10498197787181,
      "SamplesPerPixel": 1,
      "ScanOptions": "FS",
      "ScanningSequence": "EP",
      "SequenceName": "epfid2d1_96",
      "SequenceVariant": [
        "SK",
        "SS"
],
      "SeriesDescription": "EPI_PSAP_iso2.5",
      "SeriesNumber": 6,
      "SeriesTime": "153124.068000",
      "SliceLocation": -79.520622210536,
      "SliceThickness": 2.5,
      "SmallestImagePixelValue": 0,
      "SoftwareVersions": "syngo MR E11",
      "SpacingBetweenSlices": 2.4999999895034,
      "SpecificCharacterSet": "ISO_IR 100",
      "StudyID": "1",
      "StudyTime": "145714.957000",
      "TransmitCoilName": "Body",
      "VariableFlipAngleFlag": "N",
      "WindowCenterWidthExplanation": "Algo1",
      "dBdt": 0.0},
    "slices": {}
  },
  "time": {
    "samples": {
      "AcquisitionNumber": [1, 2, 3, 4, 5, 6, 7, 8, 9, 10, 11, 12, 13, 14, 15, 16, 17, 18, 19, 20, 21, 22, 23, 24, 25, 26, 27, 28, 29, 30, 31, 32, 33, 34, 35, 36, 37, 38, 39, 40, 41, 42, 43, 44, 45, 46, 47, 48, 49, 50, 51, 52, 53, 54, 55, 56, 57, 58, 59, 60, 61, 62, 63, 64, 65, 66, 67, 68, 69, 70, 71, 72, 73, 74, 75, 76, 77, 78, 79, 80, 81, 82, 83, 84, 85, 86, 87, 88, 89, 90, 91, 92, 93, 94, 95, 96, 97, 98, 99, 100, 101, 102, 103, 104, 105, 106, 107, 108, 109, 110, 111, 112, 113, 114, 115, 116, 117, 118, 119, 120, 121, 122, 123, 124, 125, 126, 127, 128, 129, 130, 131, 132, 133, 134, 135, 136, 137, 138, 139, 140, 141, 142, 143, 144, 145, 146, 147, 148, 149, 150, 151, 152, 153, 154, 155, 156, 157, 158, 159, 160, 161, 162, 163, 164, 165, 166, 167, 168, 169, 170, 171, 172, 173, 174, 175, 176, 177, 178, 179, 180, 181, 182, 183, 184, 185, 186, 187, 188, 189, 190, 191, 192, 193, 194, 195, 196, 197, 198, 199, 200, 201, 202, 203, 204, 205, 206, 207, 208, 209, 210, 211, 212, 213, 214, 215, 216, 217, 218, 219, 220, 221, 222, 223, 224, 225, 226, 227, 228, 229, 230, 231, 232, 233, 234, 235, 236, 237, 238, 239, 240, 241, 242, 243, 244, 245, 246, 247, 248, 249, 250, 251, 252, 253, 254, 255, 256, 257, 258, 259, 260, 261, 262, 263, 264, 265, 266, 267, 268, 269, 270, 271, 272, 273, 274, 275, 276, 277, 278, 279, 280, 281, 282, 283, 284, 285, 286, 287, 288, 289, 290, 291, 292, 293, 294, 295, 296, 297, 298, 299, 300, 301, 302, 303, 304, 305, 306, 307, 308, 309, 310, 311, 312, 313, 314, 315, 316, 317, 318, 319, 320, 321, 322, 323, 324, 325, 326, 327, 328, 329, 330, 331, 332, 333, 334, 335, 336, 337, 338, 339, 340, 341, 342, 343, 344, 345, 346, 347, 348, 349, 350, 351, 352, 353, 354, 355, 356, 357, 358, 359, 360, 361, 362, 363, 364, 365, 366, 367, 368, 369, 370, 371, 372, 373, 374, 375, 376, 377, 378, 379, 380, 381, 382, 383, 384, 385, 386, 387, 388, 389, 390, 391, 392, 393, 394, 395, 396, 397, 398, 399, 400, 401, 402, 403, 404, 405, 406, 407, 408, 409, 410, 411, 412, 413, 414, 415, 416, 417, 418, 419, 420, 421, 422, 423, 424, 425, 426, 427, 428, 429, 430, 431, 432, 433, 434, 435, 436, 437, 438, 439, 440, 441, 442, 443, 444, 445, 446, 447, 448, 449, 450, 451, 452, 453, 454, 455, 456, 457, 458, 459, 460, 461, 462, 463, 464, 465, 466, 467, 468, 469, 470, 471, 472, 473, 474, 475, 476, 477, 478, 479, 480, 481, 482, 483, 484, 485, 486, 487, 488, 489, 490, 491, 492, 493, 494, 495, 496, 497, 498, 499],
      "AcquisitionTime": ["153105.392500", "153107.392500", "153109.392500", "153111.392500", "153113.392500", "153115.392500", "153117.392500", "153119.392500", "153121.392500", "153123.392500", "153125.392500", "153127.392500", "153129.392500", "153131.392500", "153133.392500", "153135.392500", "153137.392500", "153139.392500", "153141.392500", "153143.392500", "153145.392500", "153147.392500", "153149.392500", "153151.392500", "153153.392500", "153155.392500", "153157.392500", "153159.392500", "153201.392500", "153203.392500", "153205.392500", "153207.392500", "153209.392500", "153211.392500", "153213.392500", "153215.392500", "153217.392500", "153219.392500", "153221.392500", "153223.392500", "153225.392500", "153227.392500", "153229.392500", "153231.392500", "153233.392500", "153235.392500", "153237.392500", "153239.392500", "153241.392500", "153243.392500", "153245.392500", "153247.392500", "153249.392500", "153251.392500", "153253.392500", "153255.392500", "153257.392500", "153259.392500", "153301.392500", "153303.392500", "153305.392500", "153307.392500", "153309.392500", "153311.392500", "153313.392500", "153315.392500", "153317.392500", "153319.392500", "153321.392500", "153323.392500", "153325.392500", "153327.392500", "153329.392500", "153331.392500", "153333.392500", "153335.392500", "153337.392500", "153339.392500", "153341.392500", "153343.392500", "153345.392500", "153347.392500", "153349.392500", "153351.392500", "153353.392500", "153355.392500", "153357.392500", "153359.392500", "153401.392500", "153403.392500", "153405.392500", "153407.392500", "153409.392500", "153411.392500", "153413.392500", "153415.392500", "153417.392500", "153419.392500", "153421.392500", "153423.392500", "153425.392500", "153427.392500", "153429.392500", "153431.392500", "153433.392500", "153435.392500", "153437.392500", "153439.392500", "153441.392500", "153443.392500", "153445.392500", "153447.392500", "153449.392500", "153451.392500", "153453.392500", "153455.392500", "153457.392500", "153459.392500", "153501.392500", "153503.392500", "153505.392500", "153507.392500", "153509.392500", "153511.392500", "153513.392500", "153515.392500", "153517.392500", "153519.392500", "153521.392500", "153523.392500", "153525.392500", "153527.392500", "153529.392500", "153531.392500", "153533.392500", "153535.392500", "153537.392500", "153539.392500", "153541.392500", "153543.392500", "153545.392500", "153547.392500", "153549.392500", "153551.392500", "153553.392500", "153555.392500", "153557.392500", "153559.392500", "153601.392500", "153603.392500", "153605.392500", "153607.392500", "153609.392500", "153611.392500", "153613.392500", "153615.392500", "153617.392500", "153619.392500", "153621.392500", "153623.392500", "153625.392500", "153627.392500", "153629.392500", "153631.392500", "153633.392500", "153635.392500", "153637.392500", "153639.392500", "153641.392500", "153643.392500", "153645.392500", "153647.392500", "153649.392500", "153651.392500", "153653.392500", "153655.392500", "153657.392500", "153659.392500", "153701.392500", "153703.392500", "153705.392500", "153707.392500", "153709.392500", "153711.392500", "153713.392500", "153715.392500", "153717.392500", "153719.392500", "153721.392500", "153723.392500", "153725.392500", "153727.392500", "153729.392500", "153731.392500", "153733.392500", "153735.392500", "153737.392500", "153739.392500", "153741.392500", "153743.392500", "153745.392500", "153747.392500", "153749.392500", "153751.392500", "153753.392500", "153755.392500", "153757.392500", "153759.392500", "153801.392500", "153803.392500", "153805.392500", "153807.392500", "153809.392500", "153811.392500", "153813.392500", "153815.392500", "153817.392500", "153819.392500", "153821.392500", "153823.392500", "153825.392500", "153827.392500", "153829.392500", "153831.392500", "153833.392500", "153835.392500", "153837.392500", "153839.392500", "153841.392500", "153843.392500", "153845.392500", "153847.392500", "153849.392500", "153851.392500", "153853.392500", "153855.392500", "153857.392500", "153859.392500", "153901.392500", "153903.392500", "153905.392500", "153907.392500", "153909.392500", "153911.392500", "153913.392500", "153915.392500", "153917.392500", "153919.392500", "153921.392500", "153923.392500", "153925.392500", "153927.392500", "153929.392500", "153931.392500", "153933.392500", "153935.392500", "153937.392500", "153939.392500", "153941.392500", "153943.392500", "153945.392500", "153947.392500", "153949.392500", "153951.392500", "153953.392500", "153955.392500", "153957.392500", "153959.392500", "154001.392500", "154003.392500", "154005.392500", "154007.392500", "154009.392500", "154011.392500", "154013.392500", "154015.392500", "154017.392500", "154019.392500", "154021.392500", "154023.392500", "154025.392500", "154027.392500", "154029.392500", "154031.392500", "154033.392500", "154035.392500", "154037.392500", "154039.392500", "154041.392500", "154043.392500", "154045.392500", "154047.392500", "154049.392500", "154051.392500", "154053.392500", "154055.392500", "154057.392500", "154059.392500", "154101.392500", "154103.392500", "154105.392500", "154107.392500", "154109.392500", "154111.392500", "154113.392500", "154115.392500", "154117.392500", "154119.392500", "154121.392500", "154123.392500", "154125.392500", "154127.392500", "154129.392500", "154131.392500", "154133.392500", "154135.392500", "154137.392500", "154139.392500", "154141.392500", "154143.392500", "154145.392500", "154147.392500", "154149.392500", "154151.392500", "154153.392500", "154155.392500", "154157.392500", "154159.392500", "154201.392500", "154203.392500", "154205.392500", "154207.392500", "154209.392500", "154211.392500", "154213.392500", "154215.392500", "154217.392500", "154219.392500", "154221.392500", "154223.392500", "154225.392500", "154227.392500", "154229.392500", "154231.392500", "154233.392500", "154235.392500", "154237.392500", "154239.392500", "154241.392500", "154243.392500", "154245.392500", "154247.392500", "154249.392500", "154251.392500", "154253.392500", "154255.392500", "154257.392500", "154259.392500", "154301.392500", "154303.392500", "154305.392500", "154307.392500", "154309.392500", "154311.392500", "154313.392500", "154315.392500", "154317.392500", "154319.392500", "154321.392500", "154323.392500", "154325.392500", "154327.392500", "154329.392500", "154331.392500", "154333.392500", "154335.392500", "154337.392500", "154339.392500", "154341.392500", "154343.392500", "154345.392500", "154347.392500", "154349.392500", "154351.392500", "154353.392500", "154355.392500", "154357.392500", "154359.392500", "154401.392500", "154403.392500", "154405.392500", "154407.392500", "154409.392500", "154411.392500", "154413.392500", "154415.392500", "154417.392500", "154419.392500", "154421.392500", "154423.392500", "154425.392500", "154427.392500", "154429.392500", "154431.392500", "154433.392500", "154435.392500", "154437.392500", "154439.392500", "154441.392500", "154443.392500", "154445.392500", "154447.392500", "154449.392500", "154451.392500", "154453.392500", "154455.392500", "154457.392500", "154459.392500", "154501.392500", "154503.392500", "154505.392500", "154507.392500", "154509.392500", "154511.392500", "154513.392500", "154515.392500", "154517.392500", "154519.392500", "154521.392500", "154523.392500", "154525.392500", "154527.392500", "154529.392500", "154531.392500", "154533.392500", "154535.392500", "154537.392500", "154539.392500", "154541.392500", "154543.392500", "154545.392500", "154547.392500", "154549.392500", "154551.392500", "154553.392500", "154555.392500", "154557.392500", "154559.392500", "154601.392500", "154603.392500", "154605.392500", "154607.392500", "154609.392500", "154611.392500", "154613.392500", "154615.392500", "154617.392500", "154619.392500", "154621.392500", "154623.392500", "154625.392500", "154627.392500", "154629.392500", "154631.392500", "154633.392500", "154635.392500", "154637.392500", "154639.392500", "154641.392500", "154643.392500", "154645.392500", "154647.392500", "154649.392500", "154651.392500", "154653.392500", "154655.392500", "154657.392500", "154659.392500", "154701.392500", "154703.392500", "154705.392500", "154707.392500", "154709.392500", "154711.392500", "154713.392500", "154715.392500", "154717.392500", "154719.392500", "154721.392500", "154723.392500", "154725.392500", "154727.392500", "154729.392500", "154731.392500", "154733.392500", "154735.392500", "154737.392500", "154739.392500", "154741.392500"],
      "ContentTime": ["153124.070000", "153124.073000", "153124.076000", "153124.079000", "153124.081000", "153124.084000", "153124.086000", "153124.089000", "153124.091000", "153204.041000", "153204.043000", "153204.046000", "153204.049000", "153204.051000", "153204.054000", "153204.056000", "153204.059000", "153204.061000", "153204.064000", "153204.066000", "153204.069000", "153204.073000", "153204.075000", "153204.078000", "153204.081000", "153204.083000", "153204.086000", "153204.088000", "153204.091000", "153244.039000", "153244.048000", "153244.050000", "153244.053000", "153244.055000", "153244.058000", "153244.060000", "153244.063000", "153244.065000", "153244.068000", "153244.070000", "153244.092000", "153244.095000", "153244.097000", "153244.100000", "153244.102000", "153244.105000", "153244.107000", "153244.110000", "153244.112000", "153324.039000", "153324.047000", "153324.050000", "153324.053000", "153324.055000", "153324.058000", "153324.060000", "153324.063000", "153324.065000", "153324.068000", "153324.070000", "153324.073000", "153324.075000", "153324.078000", "153324.081000", "153324.083000", "153324.086000", "153324.088000", "153324.091000", "153324.093000", "153404.040000", "153404.043000", "153404.046000", "153404.048000", "153404.051000", "153404.053000", "153404.056000", "153404.058000", "153404.061000", "153404.063000", "153404.066000", "153404.068000", "153404.071000", "153404.074000", "153404.076000", "153404.079000", "153404.081000", "153404.084000", "153404.087000", "153404.089000", "153444.041000", "153444.043000", "153444.046000", "153444.048000", "153444.051000", "153444.053000", "153444.056000", "153444.059000", "153444.061000", "153444.064000", "153444.067000", "153444.069000", "153444.072000", "153444.074000", "153444.077000", "153444.079000", "153444.082000", "153444.084000", "153444.087000", "153444.089000", "153524.039000", "153524.042000", "153524.045000", "153524.047000", "153524.050000", "153524.052000", "153524.055000", "153524.057000", "153524.060000", "153524.062000", "153524.065000", "153524.067000", "153524.070000", "153524.072000", "153524.075000", "153524.078000", "153524.080000", "153524.082000", "153524.085000", "153524.088000", "153604.041000", "153604.043000", "153604.046000", "153604.048000", "153604.051000", "153604.053000", "153604.056000", "153604.059000", "153604.061000", "153604.064000", "153604.066000", "153604.069000", "153604.071000", "153604.074000", "153604.077000", "153604.079000", "153604.082000", "153604.084000", "153604.087000", "153604.089000", "153644.040000", "153644.043000", "153644.046000", "153644.048000", "153644.051000", "153644.053000", "153644.056000", "153644.058000", "153644.061000", "153644.063000", "153644.066000", "153644.068000", "153644.071000", "153644.073000", "153644.076000", "153644.079000", "153644.081000", "153644.084000", "153644.086000", "153644.089000", "153724.040000", "153724.042000", "153724.045000", "153724.047000", "153724.050000", "153724.052000", "153724.055000", "153724.058000", "153724.060000", "153724.063000", "153724.065000", "153724.068000", "153724.070000", "153724.073000", "153724.075000", "153724.078000", "153724.080000", "153724.083000", "153724.086000", "153724.088000", "153804.039000", "153804.042000", "153804.045000", "153804.048000", "153804.050000", "153804.053000", "153804.056000", "153804.058000", "153804.061000", "153804.063000", "153804.066000", "153804.068000", "153804.071000", "153804.073000", "153804.076000", "153804.079000", "153804.081000", "153804.084000", "153804.087000", "153804.089000", "153844.040000", "153844.043000", "153844.046000", "153844.048000", "153844.051000", "153844.054000", "153844.056000", "153844.059000", "153844.061000", "153844.064000", "153844.077000", "153844.079000", "153844.082000", "153844.085000", "153844.087000", "153844.090000", "153844.092000", "153844.095000", "153844.097000", "153844.100000", "153924.041000", "153924.043000", "153924.046000", "153924.049000", "153924.051000", "153924.054000", "153924.057000", "153924.059000", "153924.062000", "153924.064000", "153924.067000", "153924.069000", "153924.072000", "153924.075000", "153924.077000", "153924.080000", "153924.082000", "153924.085000", "153924.087000", "153924.090000", "154004.039000", "154004.042000", "154004.045000", "154004.047000", "154004.050000", "154004.052000", "154004.055000", "154004.058000", "154004.060000", "154004.063000", "154004.065000", "154004.068000", "154004.070000", "154004.073000", "154004.075000", "154004.078000", "154004.080000", "154004.083000", "154004.086000", "154004.088000", "154044.040000", "154044.043000", "154044.046000", "154044.048000", "154044.051000", "154044.053000", "154044.056000", "154044.059000", "154044.061000", "154044.064000", "154044.066000", "154044.069000", "154044.071000", "154044.074000", "154044.077000", "154044.079000", "154044.082000", "154044.084000", "154044.087000", "154044.089000", "154124.041000", "154124.043000", "154124.046000", "154124.049000", "154124.051000", "154124.054000", "154124.056000", "154124.059000", "154124.061000", "154124.064000", "154124.066000", "154124.069000", "154124.071000", "154124.074000", "154124.077000", "154124.079000", "154124.082000", "154124.084000", "154124.087000", "154124.089000", "154204.039000", "154204.042000", "154204.045000", "154204.047000", "154204.050000", "154204.053000", "154204.055000", "154204.058000", "154204.060000", "154204.063000", "154204.065000", "154204.068000", "154204.071000", "154204.073000", "154204.076000", "154204.078000", "154204.081000", "154204.083000", "154204.086000", "154204.088000", "154244.039000", "154244.048000", "154244.051000", "154244.054000", "154244.056000", "154244.059000", "154244.061000", "154244.064000", "154244.066000", "154244.069000", "154244.071000", "154244.074000", "154244.077000", "154244.079000", "154244.082000", "154244.085000", "154244.087000", "154244.090000", "154244.092000", "154244.095000", "154324.043000", "154324.046000", "154324.049000", "154324.052000", "154324.054000", "154324.057000", "154324.059000", "154324.062000", "154324.064000", "154324.067000", "154324.070000", "154324.072000", "154324.075000", "154324.077000", "154324.080000", "154324.082000", "154324.085000", "154324.087000", "154324.090000", "154324.093000", "154404.041000", "154404.043000", "154404.046000", "154404.049000", "154404.051000", "154404.054000", "154404.057000", "154404.059000", "154404.062000", "154404.064000", "154404.067000", "154404.069000", "154404.072000", "154404.074000", "154404.077000", "154404.080000", "154404.082000", "154404.085000", "154404.087000", "154404.090000", "154444.040000", "154444.042000", "154444.045000", "154444.048000", "154444.050000", "154444.053000", "154444.055000", "154444.058000", "154444.061000", "154444.063000", "154444.066000", "154444.068000", "154444.071000", "154444.073000", "154444.076000", "154444.078000", "154444.081000", "154444.084000", "154444.086000", "154444.089000", "154524.040000", "154524.043000", "154524.046000", "154524.048000", "154524.051000", "154524.053000", "154524.056000", "154524.059000", "154524.061000", "154524.064000", "154524.066000", "154524.069000", "154524.071000", "154524.074000", "154524.076000", "154524.079000", "154524.081000", "154524.084000", "154524.087000", "154524.089000", "154604.041000", "154604.043000", "154604.046000", "154604.049000", "154604.051000", "154604.054000", "154604.056000", "154604.059000", "154604.062000", "154604.064000", "154604.067000", "154604.069000", "154604.072000", "154604.074000", "154604.077000", "154604.080000", "154604.082000", "154604.085000", "154604.087000", "154604.090000", "154644.040000", "154644.042000", "154644.045000", "154644.047000", "154644.050000", "154644.053000", "154644.055000", "154644.058000", "154644.060000", "154644.063000", "154644.066000", "154644.068000", "154644.071000", "154644.073000", "154644.076000", "154644.078000", "154644.081000", "154644.083000", "154644.086000", "154644.088000", "154724.039000", "154724.042000", "154724.045000", "154724.047000", "154724.050000", "154724.053000", "154724.055000", "154724.058000", "154724.061000", "154724.064000", "154724.066000", "154724.069000", "154724.071000", "154724.074000", "154724.076000", "154724.079000", "154724.081000", "154724.084000", "154724.087000", "154724.089000", "154745.405000", "154745.408000", "154745.410000", "154745.413000", "154745.415000", "154745.418000", "154745.421000", "154745.423000", "154745.426000", "154745.428000"],
