{
  "AcquisitionMatrixPE": 96,
  "AcquisitionNumber": 1,
  "AcquisitionTime": "12:34:35.232500",
  "BandwidthPerPixelPhaseEncode": 20.425,
  "BaseResolution": 96,
  "BodyPartExamined": "BRAIN",
  "CoilCombinationMethod": "Sum of Squares",
  "ConsistencyInfo": "N4_VE11C_LATEST_20160120",
  "ConversionSoftware": "dcm2niix",
  "ConversionSoftwareVersion": "v1.0.20211006",
  "DerivedVendorReportedEchoSpacing": 0.000509996,
  "DeviceSerialNumber": "166054",
  "DwellTime": 2.3e-06,
  "EchoTime": 0.03,
  "EchoTrainLength": 96,
  "EffectiveEchoSpacing": 0.000509996,
  "FlipAngle": 75,
  "HeudiconvVersion": "0.11.3+d20220512",
  "ImageComments": "Unaliased MB2/PE2",
  "ImageOrientationPatientDICOM": [0.997958, -0.032631, 0.0549098, 0.0516022, 0.918516, -0.392002],
  "ImageOrientationText": "Tra>Cor(-23.2)>Sag(2.2)",
  "ImageType": [
    "ORIGINAL",
    "PRIMARY",
    "M",
    "MB",
    "ND",
    "MOSAIC"
],
  "ImagingFrequency": 123.26,
  "InPlanePhaseEncodingDirectionDICOM": "COL",
  "InstitutionAddress": "Street StreetNo,City,District,IL,ZIP",
  "InstitutionName": "Weizmann Institute",
  "InstitutionalDepartmentName": "Department",
  "MRAcquisitionType": "2D",
  "MagneticFieldStrength": 3,
  "Manufacturer": "Siemens",
  "ManufacturersModelName": "Prisma",
  "MatrixCoilMode": "SENSE",
  "Modality": "MR",
  "MultibandAccelerationFactor": 2,
  "PartialFourier": 1,
  "PatientPosition": "HFS",
  "PercentPhaseFOV": 100,
  "PercentSampling": 100,
  "PhaseEncodingDirection": "j-",
  "PhaseEncodingSteps": 96,
  "PhaseResolution": 1,
  "PixelBandwidth": 2265,
  "ProcedureStepDescription": "Weizmann^Sobel",
  "ProtocolName": "EPI_PSAP_iso2.5",
  "PulseSequenceDetails": "%CustomerSeq%\\cmrr_mbep2d_bold",
  "ReceiveCoilActiveElements": "HEA;HEP",
  "ReceiveCoilName": "Head_32",
  "ReconMatrixPE": 96,
  "RepetitionTime": 2,
  "SAR": 0.108518,
  "ScanOptions": "FS",
  "ScanningSequence": "EP",
  "SequenceName": "epfid2d1_96",
  "SequenceVariant": "SK\\SS",
  "SeriesDescription": "EPI_PSAP_iso2.5",
  "SeriesNumber": 6,
  "ShimSetting": [5914, -4051, -1932, 479, 140, -7, 49, -45],
  "SliceThickness": 2.5,
  "SliceTiming": [0, 0.92, 1.84, 0.78, 1.6975, 0.6375, 1.5575, 0.495, 1.415, 0.355, 1.275, 0.2125, 1.1325, 0.0725, 0.99, 1.91, 0.85, 1.77, 0.7075, 1.6275, 0.5675, 1.485, 0.425, 1.345, 0.285, 1.2025, 0.1425, 1.0625, 0, 0.92, 1.84, 0.78, 1.6975, 0.6375, 1.5575, 0.495, 1.415, 0.355, 1.275, 0.2125, 1.1325, 0.0725, 0.99, 1.91, 0.85, 1.77, 0.7075, 1.6275, 0.5675, 1.485, 0.425, 1.345, 0.285, 1.2025, 0.1425, 1.0625],
  "SoftwareVersions": "syngo MR E11",
  "SpacingBetweenSlices": 2.5,
  "StationName": "AWP166054",
  "TaskName": "PSAP",
  "TotalReadoutTime": 0.0484496,
  "TxRefAmp": 262.3,
  "VendorReportedEchoSpacing": 0.00051,
  "WipMemBlock": "875cdcf5-1602-4ea7-8188-eca6d9f531ac||Sequence: R016 ve11c/master r/e634e98; Dec 19 2017 11:00:25 by eja",
  "dcmmeta_affine": [
    [-2.4948949813842773, 0.1290055364370346, 0.09411024302244186, 113.797119140625],
    [0.08157753199338913, 2.296290159225464, -0.9850868582725525, -75.98605346679688],
    [0.13727444410324097, 0.9800043702125549, 2.2958106994628906, -120.84099578857422],
    [0.0, 0.0, 0.0, 1.0]
],
  "dcmmeta_reorient_transform": [
    [0.0, -1.0, 0.0, 95.0],
    [1.0, 0.0, 0.0, 0.0],
    [0.0, 0.0, 1.0, 0.0],
    [0.0, 0.0, 0.0, 1.0]
],
  "dcmmeta_shape": [96, 96, 56, 494],
  "dcmmeta_slice_dim": 2,
  "dcmmeta_version": 0.6,
  "global": {
    "const": {
      "AcquisitionMatrix": [96, 0, 0, 96],
      "AngioFlag": "N",
      "BitsAllocated": 16,
      "BitsStored": 16,
      "BodyPartExamined": "BRAIN",
      "Columns": 768,
      "EchoNumbers": 1,
      "EchoTime": 30.0,
      "EchoTrainLength": 96,
      "FlipAngle": 75.0,
      "HighBit": 15,
      "ImageOrientationPatient": [0.9979579818658, -0.0326310127493, 0.05490977542572, 0.05160221190129, 0.91851610357966, -0.3920017591692],
      "ImagePositionPatient": [-1007.6832060918, -886.30499572985, 255.41669215008],
      "ImageType": [
        "ORIGINAL",
        "PRIMARY",
        "M",
        "MB",
        "ND",
        "MOSAIC"
],
      "ImagedNucleus": "1H",
      "ImagingFrequency": 123.259962,
      "InPlanePhaseEncodingDirection": "COL",
      "MRAcquisitionType": "2D",
      "MagneticFieldStrength": 3.0,
      "Manufacturer": "SIEMENS",
      "ManufacturerModelName": "Prisma",
      "Modality": "MR",
      "NumberOfAverages": 1.0,
      "NumberOfPhaseEncodingSteps": 96,
      "PercentPhaseFieldOfView": 100.0,
      "PercentSampling": 100.0,
      "PerformedProcedureStepStartTime": "114223.244000",
      "PhotometricInterpretation": "MONOCHROME2",
      "PixelBandwidth": 2265.0,
      "PixelRepresentation": 0,
      "PixelSpacing": [2.5, 2.5],
      "ProtocolName": "EPI_PSAP_iso2.5",
      "RepetitionTime": 2000.0,
      "Rows": 768,
      "SAR": 0.10851766950852,
      "SamplesPerPixel": 1,
      "ScanOptions": "FS",
      "ScanningSequence": "EP",
      "SequenceName": "epfid2d1_96",
      "SequenceVariant": [
        "SK",
        "SS"
],
      "SeriesDescription": "EPI_PSAP_iso2.5",
      "SeriesNumber": 6,
      "SeriesTime": "123524.070000",
      "SliceLocation": -76.746284327748,
      "SliceThickness": 2.5,
      "SmallestImagePixelValue": 0,
      "SoftwareVersions": "syngo MR E11",
      "SpacingBetweenSlices": 2.4999999391499,
      "SpecificCharacterSet": "ISO_IR 100",
      "StudyID": "1",
      "StudyTime": "114223.153000",
      "TransmitCoilName": "Body",
      "VariableFlipAngleFlag": "N",
      "WindowCenterWidthExplanation": "Algo1",
      "dBdt": 0.0},
    "slices": {}
  },
  "time": {
    "samples": {
      "AcquisitionNumber": [1, 2, 3, 4, 5, 6, 7, 8, 9, 10, 11, 12, 13, 14, 15, 16, 17, 18, 19, 20, 21, 22, 23, 24, 25, 26, 27, 28, 29, 30, 31, 32, 33, 34, 35, 36, 37, 38, 39, 40, 41, 42, 43, 44, 45, 46, 47, 48, 49, 50, 51, 52, 53, 54, 55, 56, 57, 58, 59, 60, 61, 62, 63, 64, 65, 66, 67, 68, 69, 70, 71, 72, 73, 74, 75, 76, 77, 78, 79, 80, 81, 82, 83, 84, 85, 86, 87, 88, 89, 90, 91, 92, 93, 94, 95, 96, 97, 98, 99, 100, 101, 102, 103, 104, 105, 106, 107, 108, 109, 110, 111, 112, 113, 114, 115, 116, 117, 118, 119, 120, 121, 122, 123, 124, 125, 126, 127, 128, 129, 130, 131, 132, 133, 134, 135, 136, 137, 138, 139, 140, 141, 142, 143, 144, 145, 146, 147, 148, 149, 150, 151, 152, 153, 154, 155, 156, 157, 158, 159, 160, 161, 162, 163, 164, 165, 166, 167, 168, 169, 170, 171, 172, 173, 174, 175, 176, 177, 178, 179, 180, 181, 182, 183, 184, 185, 186, 187, 188, 189, 190, 191, 192, 193, 194, 195, 196, 197, 198, 199, 200, 201, 202, 203, 204, 205, 206, 207, 208, 209, 210, 211, 212, 213, 214, 215, 216, 217, 218, 219, 220, 221, 222, 223, 224, 225, 226, 227, 228, 229, 230, 231, 232, 233, 234, 235, 236, 237, 238, 239, 240, 241, 242, 243, 244, 245, 246, 247, 248, 249, 250, 251, 252, 253, 254, 255, 256, 257, 258, 259, 260, 261, 262, 263, 264, 265, 266, 267, 268, 269, 270, 271, 272, 273, 274, 275, 276, 277, 278, 279, 280, 281, 282, 283, 284, 285, 286, 287, 288, 289, 290, 291, 292, 293, 294, 295, 296, 297, 298, 299, 300, 301, 302, 303, 304, 305, 306, 307, 308, 309, 310, 311, 312, 313, 314, 315, 316, 317, 318, 319, 320, 321, 322, 323, 324, 325, 326, 327, 328, 329, 330, 331, 332, 333, 334, 335, 336, 337, 338, 339, 340, 341, 342, 343, 344, 345, 346, 347, 348, 349, 350, 351, 352, 353, 354, 355, 356, 357, 358, 359, 360, 361, 362, 363, 364, 365, 366, 367, 368, 369, 370, 371, 372, 373, 374, 375, 376, 377, 378, 379, 380, 381, 382, 383, 384, 385, 386, 387, 388, 389, 390, 391, 392, 393, 394, 395, 396, 397, 398, 399, 400, 401, 402, 403, 404, 405, 406, 407, 408, 409, 410, 411, 412, 413, 414, 415, 416, 417, 418, 419, 420, 421, 422, 423, 424, 425, 426, 427, 428, 429, 430, 431, 432, 433, 434, 435, 436, 437, 438, 439, 440, 441, 442, 443, 444, 445, 446, 447, 448, 449, 450, 451, 452, 453, 454, 455, 456, 457, 458, 459, 460, 461, 462, 463, 464, 465, 466, 467, 468, 469, 470, 471, 472, 473, 474, 475, 476, 477, 478, 479, 480, 481, 482, 483, 484, 485, 486, 487, 488, 489, 490, 491, 492, 493, 494],
      "AcquisitionTime": ["123435.232500", "123437.232500", "123439.232500", "123441.232500", "123443.232500", "123445.232500", "123447.232500", "123449.232500", "123451.232500", "123453.232500", "123455.232500", "123457.232500", "123459.232500", "123501.232500", "123503.232500", "123505.232500", "123507.232500", "123509.232500", "123511.232500", "123513.232500", "123515.232500", "123517.232500", "123519.232500", "123521.232500", "123523.232500", "123525.232500", "123527.232500", "123529.232500", "123531.232500", "123533.232500", "123535.232500", "123537.232500", "123539.232500", "123541.232500", "123543.232500", "123545.232500", "123547.232500", "123549.232500", "123551.232500", "123553.232500", "123555.232500", "123557.232500", "123559.232500", "123601.232500", "123603.232500", "123605.232500", "123607.232500", "123609.232500", "123611.232500", "123613.232500", "123615.232500", "123617.232500", "123619.232500", "123621.232500", "123623.232500", "123625.232500", "123627.232500", "123629.232500", "123631.232500", "123633.232500", "123635.232500", "123637.232500", "123639.232500", "123641.232500", "123643.232500", "123645.232500", "123647.232500", "123649.232500", "123651.232500", "123653.232500", "123655.232500", "123657.232500", "123659.232500", "123701.232500", "123703.232500", "123705.232500", "123707.232500", "123709.232500", "123711.232500", "123713.232500", "123715.232500", "123717.232500", "123719.232500", "123721.232500", "123723.232500", "123725.232500", "123727.232500", "123729.232500", "123731.232500", "123733.232500", "123735.232500", "123737.232500", "123739.232500", "123741.232500", "123743.232500", "123745.232500", "123747.232500", "123749.232500", "123751.232500", "123753.232500", "123755.232500", "123757.232500", "123759.232500", "123801.232500", "123803.232500", "123805.232500", "123807.232500", "123809.232500", "123811.232500", "123813.232500", "123815.232500", "123817.232500", "123819.232500", "123821.232500", "123823.232500", "123825.232500", "123827.232500", "123829.232500", "123831.232500", "123833.232500", "123835.232500", "123837.232500", "123839.232500", "123841.232500", "123843.232500", "123845.232500", "123847.232500", "123849.232500", "123851.232500", "123853.232500", "123855.232500", "123857.232500", "123859.232500", "123901.232500", "123903.232500", "123905.232500", "123907.232500", "123909.232500", "123911.232500", "123913.232500", "123915.232500", "123917.232500", "123919.232500", "123921.232500", "123923.232500", "123925.232500", "123927.232500", "123929.232500", "123931.232500", "123933.232500", "123935.232500", "123937.232500", "123939.232500", "123941.232500", "123943.232500", "123945.232500", "123947.232500", "123949.232500", "123951.232500", "123953.232500", "123955.232500", "123957.232500", "123959.232500", "124001.232500", "124003.232500", "124005.232500", "124007.232500", "124009.232500", "124011.232500", "124013.232500", "124015.232500", "124017.232500", "124019.232500", "124021.232500", "124023.232500", "124025.232500", "124027.232500", "124029.232500", "124031.232500", "124033.232500", "124035.232500", "124037.232500", "124039.232500", "124041.232500", "124043.232500", "124045.232500", "124047.232500", "124049.232500", "124051.232500", "124053.232500", "124055.232500", "124057.232500", "124059.232500", "124101.232500", "124103.232500", "124105.232500", "124107.232500", "124109.232500", "124111.232500", "124113.232500", "124115.232500", "124117.232500", "124119.232500", "124121.232500", "124123.232500", "124125.232500", "124127.232500", "124129.232500", "124131.232500", "124133.232500", "124135.232500", "124137.232500", "124139.232500", "124141.232500", "124143.232500", "124145.232500", "124147.232500", "124149.232500", "124151.232500", "124153.232500", "124155.232500", "124157.232500", "124159.232500", "124201.232500", "124203.232500", "124205.232500", "124207.232500", "124209.232500", "124211.232500", "124213.232500", "124215.232500", "124217.232500", "124219.232500", "124221.232500", "124223.232500", "124225.232500", "124227.232500", "124229.232500", "124231.232500", "124233.232500", "124235.232500", "124237.232500", "124239.232500", "124241.232500", "124243.232500", "124245.232500", "124247.232500", "124249.232500", "124251.232500", "124253.232500", "124255.232500", "124257.232500", "124259.232500", "124301.232500", "124303.232500", "124305.232500", "124307.232500", "124309.232500", "124311.232500", "124313.232500", "124315.232500", "124317.232500", "124319.232500", "124321.232500", "124323.232500", "124325.232500", "124327.232500", "124329.232500", "124331.232500", "124333.232500", "124335.232500", "124337.232500", "124339.232500", "124341.232500", "124343.232500", "124345.232500", "124347.232500", "124349.232500", "124351.232500", "124353.232500", "124355.232500", "124357.232500", "124359.232500", "124401.232500", "124403.232500", "124405.232500", "124407.232500", "124409.232500", "124411.232500", "124413.232500", "124415.232500", "124417.232500", "124419.232500", "124421.232500", "124423.232500", "124425.232500", "124427.232500", "124429.232500", "124431.232500", "124433.232500", "124435.232500", "124437.232500", "124439.232500", "124441.232500", "124443.232500", "124445.232500", "124447.232500", "124449.232500", "124451.232500", "124453.232500", "124455.232500", "124457.232500", "124459.232500", "124501.232500", "124503.232500", "124505.232500", "124507.232500", "124509.232500", "124511.232500", "124513.232500", "124515.232500", "124517.232500", "124519.232500", "124521.232500", "124523.232500", "124525.232500", "124527.232500", "124529.232500", "124531.232500", "124533.232500", "124535.232500", "124537.232500", "124539.232500", "124541.232500", "124543.232500", "124545.232500", "124547.232500", "124549.232500", "124551.232500", "124553.232500", "124555.232500", "124557.232500", "124559.232500", "124601.232500", "124603.232500", "124605.232500", "124607.232500", "124609.232500", "124611.232500", "124613.232500", "124615.232500", "124617.232500", "124619.232500", "124621.232500", "124623.232500", "124625.232500", "124627.232500", "124629.232500", "124631.232500", "124633.232500", "124635.232500", "124637.232500", "124639.232500", "124641.232500", "124643.232500", "124645.232500", "124647.232500", "124649.232500", "124651.232500", "124653.232500", "124655.232500", "124657.232500", "124659.232500", "124701.232500", "124703.232500", "124705.232500", "124707.232500", "124709.232500", "124711.232500", "124713.232500", "124715.232500", "124717.232500", "124719.232500", "124721.232500", "124723.232500", "124725.232500", "124727.232500", "124729.232500", "124731.232500", "124733.232500", "124735.232500", "124737.232500", "124739.232500", "124741.232500", "124743.232500", "124745.232500", "124747.232500", "124749.232500", "124751.232500", "124753.232500", "124755.232500", "124757.232500", "124759.232500", "124801.232500", "124803.232500", "124805.232500", "124807.232500", "124809.232500", "124811.232500", "124813.232500", "124815.232500", "124817.232500", "124819.232500", "124821.232500", "124823.232500", "124825.232500", "124827.232500", "124829.232500", "124831.232500", "124833.232500", "124835.232500", "124837.232500", "124839.232500", "124841.232500", "124843.232500", "124845.232500", "124847.232500", "124849.232500", "124851.232500", "124853.232500", "124855.232500", "124857.232500", "124859.232500", "124901.232500", "124903.232500", "124905.232500", "124907.232500", "124909.232500", "124911.232500", "124913.232500", "124915.232500", "124917.232500", "124919.232500", "124921.232500", "124923.232500", "124925.232500", "124927.232500", "124929.232500", "124931.232500", "124933.232500", "124935.232500", "124937.232500", "124939.232500", "124941.232500", "124943.232500", "124945.232500", "124947.232500", "124949.232500", "124951.232500", "124953.232500", "124955.232500", "124957.232500", "124959.232500", "125001.232500", "125003.232500", "125005.232500", "125007.232500", "125009.232500", "125011.232500", "125013.232500", "125015.232500", "125017.232500", "125019.232500", "125021.232500", "125023.232500", "125025.232500", "125027.232500", "125029.232500", "125031.232500", "125033.232500", "125035.232500", "125037.232500", "125039.232500", "125041.232500", "125043.232500", "125045.232500", "125047.232500", "125049.232500", "125051.232500", "125053.232500", "125055.232500", "125057.232500", "125059.232500", "125101.232500"],
      "ContentTime": ["123524.072000", "123524.075000", "123524.078000", "123524.081000", "123524.083000", "123524.086000", "123524.089000", "123524.091000", "123524.094000", "123524.096000", "123524.099000", "123524.101000", "123524.108000", "123524.110000", "123524.113000", "123524.124000", "123524.127000", "123524.129000", "123524.132000", "123524.135000", "123524.137000", "123524.140000", "123524.142000", "123524.145000", "123604.041000", "123604.044000", "123604.046000", "123604.049000", "123604.051000", "123604.054000", "123604.056000", "123604.059000", "123604.061000", "123604.064000", "123604.066000", "123604.069000", "123604.071000", "123604.080000", "123604.082000", "123604.085000", "123604.088000", "123604.090000", "123604.093000", "123604.095000", "123644.039000", "123644.042000", "123644.045000", "123644.047000", "123644.050000", "123644.052000", "123644.055000", "123644.057000", "123644.060000", "123644.062000", "123644.065000", "123644.067000", "123644.070000", "123644.073000", "123644.075000", "123644.082000", "123644.084000", "123644.087000", "123644.089000", "123644.092000", "123724.039000", "123724.042000", "123724.045000", "123724.047000", "123724.050000", "123724.052000", "123724.055000", "123724.058000", "123724.060000", "123724.063000", "123724.065000", "123724.068000", "123724.070000", "123724.073000", "123724.075000", "123724.078000", "123724.080000", "123724.083000", "123724.086000", "123724.088000", "123804.040000", "123804.043000", "123804.046000", "123804.048000", "123804.051000", "123804.060000", "123804.062000", "123804.065000", "123804.067000", "123804.070000", "123804.072000", "123804.075000", "123804.077000", "123804.080000", "123804.083000", "123804.085000", "123804.088000", "123804.090000", "123804.093000", "123804.095000", "123844.040000", "123844.043000", "123844.046000", "123844.048000", "123844.051000", "123844.053000", "123844.056000", "123844.058000", "123844.061000", "123844.064000", "123844.066000", "123844.068000", "123844.071000", "123844.074000", "123844.076000", "123844.079000", "123844.081000", "123844.084000", "123844.086000", "123844.089000", "123924.039000", "123924.042000", "123924.045000", "123924.047000", "123924.050000", "123924.053000", "123924.055000", "123924.057000", "123924.060000", "123924.063000", "123924.065000", "123924.068000", "123924.087000", "123924.090000", "123924.092000", "123924.095000", "123924.097000", "123924.100000", "123924.103000", "123924.105000", "124004.040000", "124004.043000", "124004.046000", "124004.048000", "124004.051000", "124004.053000", "124004.056000", "124004.058000", "124004.061000", "124004.064000", "124004.066000", "124004.069000", "124004.071000", "124004.074000", "124004.076000", "124004.079000", "124004.081000", "124004.084000", "124004.086000", "124004.089000", "124044.040000", "124044.050000", "124044.053000", "124044.055000", "124044.058000", "124044.060000", "124044.063000", "124044.065000", "124044.068000", "124044.070000", "124044.073000", "124044.075000", "124044.078000", "124044.080000", "124044.083000", "124044.085000", "124044.088000", "124044.099000", "124044.101000", "124044.104000", "124124.040000", "124124.042000", "124124.045000", "124124.047000", "124124.050000", "124124.052000", "124124.055000", "124124.057000", "124124.060000", "124124.063000", "124124.065000", "124124.068000", "124124.070000", "124124.073000", "124124.075000", "124124.078000", "124124.080000", "124124.083000", "124124.085000", "124124.088000", "124204.040000", "124204.043000", "124204.045000", "124204.048000", "124204.050000", "124204.053000", "124204.055000", "124204.058000", "124204.060000", "124204.063000", "124204.065000", "124204.068000", "124204.070000", "124204.073000", "124204.075000", "124204.078000", "124204.080000", "124204.083000", "124204.086000", "124204.088000", "124244.041000", "124244.044000", "124244.046000", "124244.049000", "124244.051000", "124244.054000", "124244.056000", "124244.059000", "124244.061000", "124244.064000", "124244.066000", "124244.069000", "124244.071000", "124244.074000", "124244.077000", "124244.079000", "124244.082000", "124244.084000", "124244.087000", "124244.089000", "124324.040000", "124324.043000", "124324.046000", "124324.048000", "124324.051000", "124324.054000", "124324.056000", "124324.059000", "124324.061000", "124324.064000", "124324.066000", "124324.069000", "124324.071000", "124324.074000", "124324.076000", "124324.079000", "124324.081000", "124324.084000", "124324.086000", "124324.089000", "124404.039000", "124404.042000", "124404.045000", "124404.047000", "124404.050000", "124404.052000", "124404.055000", "124404.057000", "124404.060000", "124404.062000", "124404.065000", "124404.068000", "124404.070000", "124404.073000", "124404.075000", "124404.078000", "124404.080000", "124404.083000", "124404.085000", "124404.088000", "124444.040000", "124444.043000", "124444.046000", "124444.048000", "124444.051000", "124444.053000", "124444.056000", "124444.059000", "124444.061000", "124444.064000", "124444.066000", "124444.069000", "124444.071000", "124444.074000", "124444.076000", "124444.079000", "124444.081000", "124444.084000", "124444.086000", "124444.089000", "124524.040000", "124524.043000", "124524.046000", "124524.048000", "124524.051000", "124524.054000", "124524.056000", "124524.059000", "124524.061000", "124524.064000", "124524.066000", "124524.069000", "124524.083000", "124524.086000", "124524.089000", "124524.091000", "124524.094000", "124524.096000", "124524.099000", "124524.101000", "124604.040000", "124604.043000", "124604.045000", "124604.048000", "124604.050000", "124604.053000", "124604.055000", "124604.058000", "124604.060000", "124604.063000", "124604.065000", "124604.068000", "124604.070000", "124604.073000", "124604.076000", "124604.078000", "124604.081000", "124604.083000", "124604.086000", "124604.088000", "124644.040000", "124644.042000", "124644.045000", "124644.048000", "124644.050000", "124644.053000", "124644.055000", "124644.058000", "124644.060000", "124644.063000", "124644.065000", "124644.068000", "124644.070000", "124644.073000", "124644.075000", "124644.078000", "124644.080000", "124644.083000", "124644.085000", "124644.088000", "124724.040000", "124724.044000", "124724.046000", "124724.049000", "124724.051000", "124724.054000", "124724.056000", "124724.059000", "124724.061000", "124724.064000", "124724.066000", "124724.069000", "124724.071000", "124724.074000", "124724.077000", "124724.079000", "124724.082000", "124724.085000", "124724.087000", "124724.090000", "124804.041000", "124804.044000", "124804.046000", "124804.049000", "124804.051000", "124804.054000", "124804.056000", "124804.059000", "124804.061000", "124804.064000", "124804.066000", "124804.069000", "124804.071000", "124804.074000", "124804.077000", "124804.079000", "124804.082000", "124804.084000", "124804.087000", "124804.089000", "124844.039000", "124844.042000", "124844.045000", "124844.047000", "124844.050000", "124844.052000", "124844.055000", "124844.057000", "124844.060000", "124844.063000", "124844.065000", "124844.068000", "124844.070000", "124844.073000", "124844.076000", "124844.078000", "124844.081000", "124844.083000", "124844.086000", "124844.088000", "124924.041000", "124924.048000", "124924.051000", "124924.053000", "124924.056000", "124924.059000", "124924.061000", "124924.064000", "124924.066000", "124924.069000", "124924.072000", "124924.074000", "124924.077000", "124924.079000", "124924.082000", "124924.084000", "124924.087000", "124924.089000", "124924.092000", "124924.094000", "125004.040000", "125004.043000", "125004.046000", "125004.048000", "125004.051000", "125004.054000", "125004.056000", "125004.059000", "125004.061000", "125004.064000", "125004.066000", "125004.069000", "125004.071000", "125004.074000", "125004.076000", "125004.079000", "125004.081000", "125004.084000", "125004.086000", "125004.089000", "125044.039000", "125044.042000", "125044.045000", "125044.047000", "125044.050000", "125044.053000", "125044.055000", "125044.058000", "125044.060000", "125044.063000", "125044.065000", "125044.068000", "125044.070000", "125044.073000", "125044.075000", "125044.078000", "125044.080000", "125044.083000", "125044.086000", "125044.088000", "125105.697000", "125105.700000", "125105.704000", "125105.708000", "125105.711000", "125105.714000", "125105.716000", "125105.719000", "125105.721000", "125105.724000"],
