{
  "AcquisitionMatrixPE": 96,
  "AcquisitionNumber": 1,
  "AcquisitionTime": "12:57:26.540000",
  "BandwidthPerPixelPhaseEncode": 20.425,
  "BaseResolution": 96,
  "BodyPartExamined": "BRAIN",
  "CoilCombinationMethod": "Sum of Squares",
  "ConsistencyInfo": "N4_VE11C_LATEST_20160120",
  "ConversionSoftware": "dcm2niix",
  "ConversionSoftwareVersion": "v1.0.20211006",
  "DerivedVendorReportedEchoSpacing": 0.000509996,
  "DeviceSerialNumber": "166054",
  "DwellTime": 2.3e-06,
  "EchoTime": 0.03,
  "EchoTrainLength": 96,
  "EffectiveEchoSpacing": 0.000509996,
  "FlipAngle": 75,
  "HeudiconvVersion": "0.11.3+d20220512",
  "ImageComments": "Unaliased MB2/PE2",
  "ImageOrientationPatientDICOM": [0.999733, -0.0215803, -0.00830518, 0.0184976, 0.9619, -0.272775],
  "ImageOrientationText": "Tra>Cor(-15.8)>Sag(-0.8)",
  "ImageType": [
    "ORIGINAL",
    "PRIMARY",
    "M",
    "MB",
    "ND",
    "MOSAIC"
],
  "ImagingFrequency": 123.26,
  "InPlanePhaseEncodingDirectionDICOM": "COL",
  "InstitutionAddress": "Street StreetNo,City,District,IL,ZIP",
  "InstitutionName": "Weizmann Institute",
  "InstitutionalDepartmentName": "Department",
  "MRAcquisitionType": "2D",
  "MagneticFieldStrength": 3,
  "Manufacturer": "Siemens",
  "ManufacturersModelName": "Prisma",
  "MatrixCoilMode": "SENSE",
  "Modality": "MR",
  "MultibandAccelerationFactor": 2,
  "PartialFourier": 1,
  "PatientPosition": "HFS",
  "PercentPhaseFOV": 100,
  "PercentSampling": 100,
  "PhaseEncodingDirection": "j-",
  "PhaseEncodingSteps": 96,
  "PhaseResolution": 1,
  "PixelBandwidth": 2265,
  "ProcedureStepDescription": "Weizmann^Sobel",
  "ProtocolName": "EPI_PSAP_iso2.5",
  "PulseSequenceDetails": "%CustomerSeq%\\cmrr_mbep2d_bold",
  "ReceiveCoilActiveElements": "HEA;HEP",
  "ReceiveCoilName": "Head_32",
  "ReconMatrixPE": 96,
  "RepetitionTime": 2,
  "SAR": 0.169649,
  "ScanOptions": "FS",
  "ScanningSequence": "EP",
  "SequenceName": "epfid2d1_96",
  "SequenceVariant": "SK\\SS",
  "SeriesDescription": "EPI_PSAP_iso2.5",
  "SeriesNumber": 6,
  "ShimSetting": [5892, -4103, -1803, 312, 36, -204, 108, 49],
  "SliceThickness": 2.5,
  "SliceTiming": [0, 0.9175, 1.8375, 0.7775, 1.695, 0.635, 1.555, 0.495, 1.4125, 0.3525, 1.2725, 0.21, 1.13, 0.07, 0.99, 1.9075, 0.8475, 1.7675, 0.705, 1.625, 0.565, 1.485, 0.4225, 1.3425, 0.2825, 1.2, 0.14, 1.06, 0, 0.9175, 1.8375, 0.7775, 1.695, 0.635, 1.555, 0.495, 1.4125, 0.3525, 1.2725, 0.21, 1.13, 0.07, 0.99, 1.9075, 0.8475, 1.7675, 0.705, 1.625, 0.565, 1.485, 0.4225, 1.3425, 0.2825, 1.2, 0.14, 1.06],
  "SoftwareVersions": "syngo MR E11",
  "SpacingBetweenSlices": 2.5,
  "StationName": "AWP166054",
  "TaskName": "PSAP",
  "TotalReadoutTime": 0.0484496,
  "TxRefAmp": 285.9,
  "VendorReportedEchoSpacing": 0.00051,
  "WipMemBlock": "d188df93-7756-49cd-9a89-46ef5edfdbe3||Sequence: R016 ve11c/master r/e634e98; Dec 19 2017 11:00:25 by eja",
  "dcmmeta_affine": [
    [-2.499331474304199, 0.04624403640627861, -0.03468829765915871, 120.2378158569336],
    [0.05395079776644707, 2.404750347137451, -0.6813703775405884, -86.0013656616211],
    [-0.02076294831931591, 0.6819368004798889, 2.4051053524017334, -39.270652770996094],
    [0.0, 0.0, 0.0, 1.0]
],
  "dcmmeta_reorient_transform": [
    [0.0, -1.0, 0.0, 95.0],
    [1.0, 0.0, 0.0, 0.0],
    [0.0, 0.0, 1.0, 0.0],
    [0.0, 0.0, 0.0, 1.0]
],
  "dcmmeta_shape": [96, 96, 56, 496],
  "dcmmeta_slice_dim": 2,
  "dcmmeta_version": 0.6,
  "global": {
    "const": {
      "AcquisitionMatrix": [96, 0, 0, 96],
      "AngioFlag": "N",
      "BitsAllocated": 16,
      "BitsStored": 16,
      "BodyPartExamined": "BRAIN",
      "Columns": 768,
      "EchoNumbers": 1,
      "EchoTime": 30.0,
      "EchoTrainLength": 96,
      "FlipAngle": 75.0,
      "HighBit": 15,
      "ImageOrientationPatient": [0.99973262115298, -0.0215803196015, -0.0083051796178, 0.01849761443496, 0.96190009692716, -0.2727747088565],
      "ImagePositionPatient": [-979.944395553, -932.3185165366, 261.62044728409],
      "ImageType": [
        "ORIGINAL",
        "PRIMARY",
        "M",
        "MB",
        "ND",
        "MOSAIC"
],
      "ImagedNucleus": "1H",
      "ImagingFrequency": 123.260154,
      "InPlanePhaseEncodingDirection": "COL",
      "MRAcquisitionType": "2D",
      "MagneticFieldStrength": 3.0,
      "Manufacturer": "SIEMENS",
      "ManufacturerModelName": "Prisma",
      "Modality": "MR",
      "NumberOfAverages": 1.0,
      "NumberOfPhaseEncodingSteps": 96,
      "PercentPhaseFieldOfView": 100.0,
      "PercentSampling": 100.0,
      "PerformedProcedureStepStartTime": "125106.849000",
      "PhotometricInterpretation": "MONOCHROME2",
      "PixelBandwidth": 2265.0,
      "PixelRepresentation": 0,
      "PixelSpacing": [2.5, 2.5],
      "ProtocolName": "EPI_PSAP_iso2.5",
      "RepetitionTime": 2000.0,
      "Rows": 768,
      "SAR": 0.16964856548812,
      "SamplesPerPixel": 1,
      "ScanOptions": "FS",
      "ScanningSequence": "EP",
      "SequenceName": "epfid2d1_96",
      "SequenceVariant": [
        "SK",
        "SS"
],
      "SeriesDescription": "EPI_PSAP_iso2.5",
      "SeriesNumber": 6,
      "SeriesTime": "125826.465000",
      "SliceLocation": -16.008844426874,
      "SliceThickness": 2.5,
      "SmallestImagePixelValue": 0,
      "SoftwareVersions": "syngo MR E11",
      "SpacingBetweenSlices": 2.5000000479173,
      "SpecificCharacterSet": "ISO_IR 100",
      "StudyID": "2",
      "StudyTime": "125106.774000",
      "TransmitCoilName": "Body",
      "VariableFlipAngleFlag": "N",
      "WindowCenterWidthExplanation": "Algo1",
      "dBdt": 0.0},
    "slices": {}
  },
  "time": {
    "samples": {
      "AcquisitionNumber": [1, 2, 3, 4, 5, 6, 7, 8, 9, 10, 11, 12, 13, 14, 15, 16, 17, 18, 19, 20, 21, 22, 23, 24, 25, 26, 27, 28, 29, 30, 31, 32, 33, 34, 35, 36, 37, 38, 39, 40, 41, 42, 43, 44, 45, 46, 47, 48, 49, 50, 51, 52, 53, 54, 55, 56, 57, 58, 59, 60, 61, 62, 63, 64, 65, 66, 67, 68, 69, 70, 71, 72, 73, 74, 75, 76, 77, 78, 79, 80, 81, 82, 83, 84, 85, 86, 87, 88, 89, 90, 91, 92, 93, 94, 95, 96, 97, 98, 99, 100, 101, 102, 103, 104, 105, 106, 107, 108, 109, 110, 111, 112, 113, 114, 115, 116, 117, 118, 119, 120, 121, 122, 123, 124, 125, 126, 127, 128, 129, 130, 131, 132, 133, 134, 135, 136, 137, 138, 139, 140, 141, 142, 143, 144, 145, 146, 147, 148, 149, 150, 151, 152, 153, 154, 155, 156, 157, 158, 159, 160, 161, 162, 163, 164, 165, 166, 167, 168, 169, 170, 171, 172, 173, 174, 175, 176, 177, 178, 179, 180, 181, 182, 183, 184, 185, 186, 187, 188, 189, 190, 191, 192, 193, 194, 195, 196, 197, 198, 199, 200, 201, 202, 203, 204, 205, 206, 207, 208, 209, 210, 211, 212, 213, 214, 215, 216, 217, 218, 219, 220, 221, 222, 223, 224, 225, 226, 227, 228, 229, 230, 231, 232, 233, 234, 235, 236, 237, 238, 239, 240, 241, 242, 243, 244, 245, 246, 247, 248, 249, 250, 251, 252, 253, 254, 255, 256, 257, 258, 259, 260, 261, 262, 263, 264, 265, 266, 267, 268, 269, 270, 271, 272, 273, 274, 275, 276, 277, 278, 279, 280, 281, 282, 283, 284, 285, 286, 287, 288, 289, 290, 291, 292, 293, 294, 295, 296, 297, 298, 299, 300, 301, 302, 303, 304, 305, 306, 307, 308, 309, 310, 311, 312, 313, 314, 315, 316, 317, 318, 319, 320, 321, 322, 323, 324, 325, 326, 327, 328, 329, 330, 331, 332, 333, 334, 335, 336, 337, 338, 339, 340, 341, 342, 343, 344, 345, 346, 347, 348, 349, 350, 351, 352, 353, 354, 355, 356, 357, 358, 359, 360, 361, 362, 363, 364, 365, 366, 367, 368, 369, 370, 371, 372, 373, 374, 375, 376, 377, 378, 379, 380, 381, 382, 383, 384, 385, 386, 387, 388, 389, 390, 391, 392, 393, 394, 395, 396, 397, 398, 399, 400, 401, 402, 403, 404, 405, 406, 407, 408, 409, 410, 411, 412, 413, 414, 415, 416, 417, 418, 419, 420, 421, 422, 423, 424, 425, 426, 427, 428, 429, 430, 431, 432, 433, 434, 435, 436, 437, 438, 439, 440, 441, 442, 443, 444, 445, 446, 447, 448, 449, 450, 451, 452, 453, 454, 455, 456, 457, 458, 459, 460, 461, 462, 463, 464, 465, 466, 467, 468, 469, 470, 471, 472, 473, 474, 475, 476, 477, 478, 479, 480, 481, 482, 483, 484, 485, 486, 487, 488, 489, 490, 491, 492, 493, 494, 495, 496],
      "AcquisitionTime": ["125726.540000", "125728.540000", "125730.540000", "125732.540000", "125734.540000", "125736.540000", "125738.540000", "125740.540000", "125742.540000", "125744.540000", "125746.540000", "125748.540000", "125750.540000", "125752.540000", "125754.540000", "125756.540000", "125758.540000", "125800.540000", "125802.540000", "125804.540000", "125806.540000", "125808.540000", "125810.540000", "125812.540000", "125814.540000", "125816.540000", "125818.540000", "125820.540000", "125822.540000", "125824.540000", "125826.540000", "125828.540000", "125830.540000", "125832.540000", "125834.540000", "125836.540000", "125838.540000", "125840.540000", "125842.540000", "125844.540000", "125846.540000", "125848.540000", "125850.540000", "125852.540000", "125854.540000", "125856.540000", "125858.540000", "125900.540000", "125902.540000", "125904.540000", "125906.540000", "125908.540000", "125910.540000", "125912.540000", "125914.540000", "125916.540000", "125918.540000", "125920.540000", "125922.540000", "125924.540000", "125926.540000", "125928.540000", "125930.540000", "125932.540000", "125934.540000", "125936.540000", "125938.540000", "125940.540000", "125942.540000", "125944.540000", "125946.540000", "125948.540000", "125950.540000", "125952.540000", "125954.540000", "125956.540000", "125958.540000", "130000.540000", "130002.540000", "130004.540000", "130006.540000", "130008.540000", "130010.540000", "130012.540000", "130014.540000", "130016.540000", "130018.540000", "130020.540000", "130022.540000", "130024.540000", "130026.540000", "130028.540000", "130030.540000", "130032.540000", "130034.540000", "130036.540000", "130038.540000", "130040.540000", "130042.540000", "130044.540000", "130046.540000", "130048.540000", "130050.540000", "130052.540000", "130054.540000", "130056.540000", "130058.540000", "130100.540000", "130102.540000", "130104.540000", "130106.540000", "130108.540000", "130110.540000", "130112.540000", "130114.540000", "130116.540000", "130118.540000", "130120.540000", "130122.540000", "130124.540000", "130126.540000", "130128.540000", "130130.540000", "130132.540000", "130134.540000", "130136.540000", "130138.540000", "130140.540000", "130142.540000", "130144.540000", "130146.540000", "130148.540000", "130150.540000", "130152.540000", "130154.540000", "130156.540000", "130158.540000", "130200.540000", "130202.540000", "130204.540000", "130206.540000", "130208.540000", "130210.540000", "130212.540000", "130214.540000", "130216.540000", "130218.540000", "130220.540000", "130222.540000", "130224.540000", "130226.540000", "130228.540000", "130230.540000", "130232.540000", "130234.540000", "130236.540000", "130238.540000", "130240.540000", "130242.540000", "130244.540000", "130246.540000", "130248.540000", "130250.540000", "130252.540000", "130254.540000", "130256.540000", "130258.540000", "130300.540000", "130302.540000", "130304.540000", "130306.540000", "130308.540000", "130310.540000", "130312.540000", "130314.540000", "130316.540000", "130318.540000", "130320.540000", "130322.540000", "130324.540000", "130326.540000", "130328.540000", "130330.540000", "130332.540000", "130334.540000", "130336.540000", "130338.540000", "130340.540000", "130342.540000", "130344.540000", "130346.540000", "130348.540000", "130350.540000", "130352.540000", "130354.540000", "130356.540000", "130358.540000", "130400.540000", "130402.540000", "130404.540000", "130406.540000", "130408.540000", "130410.540000", "130412.540000", "130414.540000", "130416.540000", "130418.540000", "130420.540000", "130422.540000", "130424.540000", "130426.540000", "130428.540000", "130430.540000", "130432.540000", "130434.540000", "130436.540000", "130438.540000", "130440.540000", "130442.540000", "130444.540000", "130446.540000", "130448.540000", "130450.540000", "130452.540000", "130454.540000", "130456.540000", "130458.540000", "130500.540000", "130502.540000", "130504.540000", "130506.540000", "130508.540000", "130510.540000", "130512.540000", "130514.540000", "130516.540000", "130518.540000", "130520.540000", "130522.540000", "130524.540000", "130526.540000", "130528.540000", "130530.540000", "130532.540000", "130534.540000", "130536.540000", "130538.540000", "130540.540000", "130542.540000", "130544.540000", "130546.540000", "130548.540000", "130550.540000", "130552.540000", "130554.540000", "130556.540000", "130558.540000", "130600.540000", "130602.540000", "130604.540000", "130606.540000", "130608.540000", "130610.540000", "130612.540000", "130614.540000", "130616.540000", "130618.540000", "130620.540000", "130622.540000", "130624.540000", "130626.540000", "130628.540000", "130630.540000", "130632.540000", "130634.540000", "130636.540000", "130638.540000", "130640.540000", "130642.540000", "130644.540000", "130646.540000", "130648.540000", "130650.540000", "130652.540000", "130654.540000", "130656.540000", "130658.540000", "130700.540000", "130702.540000", "130704.540000", "130706.540000", "130708.540000", "130710.540000", "130712.540000", "130714.540000", "130716.540000", "130718.540000", "130720.540000", "130722.540000", "130724.540000", "130726.540000", "130728.540000", "130730.540000", "130732.540000", "130734.540000", "130736.540000", "130738.540000", "130740.540000", "130742.540000", "130744.540000", "130746.540000", "130748.540000", "130750.540000", "130752.540000", "130754.540000", "130756.540000", "130758.540000", "130800.540000", "130802.540000", "130804.540000", "130806.540000", "130808.540000", "130810.540000", "130812.540000", "130814.540000", "130816.540000", "130818.540000", "130820.540000", "130822.540000", "130824.540000", "130826.540000", "130828.540000", "130830.540000", "130832.540000", "130834.540000", "130836.540000", "130838.540000", "130840.540000", "130842.540000", "130844.540000", "130846.540000", "130848.540000", "130850.540000", "130852.540000", "130854.540000", "130856.540000", "130858.540000", "130900.540000", "130902.540000", "130904.540000", "130906.540000", "130908.540000", "130910.540000", "130912.540000", "130914.540000", "130916.540000", "130918.540000", "130920.540000", "130922.540000", "130924.540000", "130926.540000", "130928.540000", "130930.540000", "130932.540000", "130934.540000", "130936.540000", "130938.540000", "130940.540000", "130942.540000", "130944.540000", "130946.540000", "130948.540000", "130950.540000", "130952.540000", "130954.540000", "130956.540000", "130958.540000", "131000.540000", "131002.540000", "131004.540000", "131006.540000", "131008.540000", "131010.540000", "131012.540000", "131014.540000", "131016.540000", "131018.540000", "131020.540000", "131022.540000", "131024.540000", "131026.540000", "131028.540000", "131030.540000", "131032.540000", "131034.540000", "131036.540000", "131038.540000", "131040.540000", "131042.540000", "131044.540000", "131046.540000", "131048.540000", "131050.540000", "131052.540000", "131054.540000", "131056.540000", "131058.540000", "131100.540000", "131102.540000", "131104.540000", "131106.540000", "131108.540000", "131110.540000", "131112.540000", "131114.540000", "131116.540000", "131118.540000", "131120.540000", "131122.540000", "131124.540000", "131126.540000", "131128.540000", "131130.540000", "131132.540000", "131134.540000", "131136.540000", "131138.540000", "131140.540000", "131142.540000", "131144.540000", "131146.540000", "131148.540000", "131150.540000", "131152.540000", "131154.540000", "131156.540000", "131158.540000", "131200.540000", "131202.540000", "131204.540000", "131206.540000", "131208.540000", "131210.540000", "131212.540000", "131214.540000", "131216.540000", "131218.540000", "131220.540000", "131222.540000", "131224.540000", "131226.540000", "131228.540000", "131230.540000", "131232.540000", "131234.540000", "131236.540000", "131238.540000", "131240.540000", "131242.540000", "131244.540000", "131246.540000", "131248.540000", "131250.540000", "131252.540000", "131254.540000", "131256.540000", "131258.540000", "131300.540000", "131302.540000", "131304.540000", "131306.540000", "131308.540000", "131310.540000", "131312.540000", "131314.540000", "131316.540000", "131318.540000", "131320.540000", "131322.540000", "131324.540000", "131326.540000", "131328.540000", "131330.540000", "131332.540000", "131334.540000", "131336.540000", "131338.540000", "131340.540000", "131342.540000", "131344.540000", "131346.540000", "131348.540000", "131350.540000", "131352.540000", "131354.540000", "131356.540000"],
      "ContentTime": ["125826.467000", "125826.470000", "125826.473000", "125826.484000", "125826.487000", "125826.489000", "125826.492000", "125826.495000", "125826.497000", "125826.500000", "125826.502000", "125826.505000", "125826.508000", "125826.510000", "125826.513000", "125826.515000", "125826.518000", "125826.520000", "125826.523000", "125826.526000", "125826.528000", "125826.531000", "125826.533000", "125826.536000", "125826.538000", "125826.543000", "125826.546000", "125826.548000", "125826.551000", "125906.424000", "125906.435000", "125906.437000", "125906.440000", "125906.443000", "125906.445000", "125906.448000", "125906.450000", "125906.453000", "125906.455000", "125906.458000", "125906.461000", "125906.463000", "125906.466000", "125906.468000", "125906.471000", "125906.473000", "125906.476000", "125906.479000", "125906.481000", "125946.424000", "125946.427000", "125946.430000", "125946.432000", "125946.435000", "125946.437000", "125946.440000", "125946.443000", "125946.445000", "125946.448000", "125946.450000", "125946.453000", "125946.455000", "125946.458000", "125946.460000", "125946.463000", "125946.465000", "125946.468000", "125946.471000", "125946.473000", "130026.425000", "130026.428000", "130026.430000", "130026.433000", "130026.435000", "130026.438000", "130026.440000", "130026.451000", "130026.453000", "130026.456000", "130026.459000", "130026.461000", "130026.464000", "130026.466000", "130026.469000", "130026.471000", "130026.474000", "130026.476000", "130026.479000", "130026.481000", "130046.424000", "130046.427000", "130046.429000", "130046.432000", "130046.434000", "130046.437000", "130046.439000", "130046.442000", "130046.445000", "130046.447000", "130126.424000", "130126.427000", "130126.430000", "130126.432000", "130126.435000", "130126.437000", "130126.440000", "130126.443000", "130126.445000", "130126.448000", "130126.450000", "130126.453000", "130126.456000", "130126.458000", "130126.461000", "130126.464000", "130126.466000", "130126.469000", "130126.471000", "130126.474000", "130206.425000", "130206.427000", "130206.430000", "130206.433000", "130206.435000", "130206.438000", "130206.440000", "130206.443000", "130206.445000", "130206.448000", "130206.450000", "130206.453000", "130206.456000", "130206.458000", "130206.461000", "130206.463000", "130206.466000", "130206.468000", "130206.471000", "130206.473000", "130246.424000", "130246.427000", "130246.430000", "130246.432000", "130246.435000", "130246.438000", "130246.440000", "130246.443000", "130246.445000", "130246.462000", "130246.465000", "130246.484000", "130246.487000", "130246.489000", "130246.492000", "130246.495000", "130246.497000", "130246.500000", "130246.502000", "130246.505000", "130326.424000", "130326.427000", "130326.430000", "130326.433000", "130326.435000", "130326.438000", "130326.440000", "130326.443000", "130326.445000", "130326.448000", "130326.451000", "130326.453000", "130326.456000", "130326.458000", "130326.461000", "130326.463000", "130326.466000", "130326.468000", "130326.471000", "130326.474000", "130406.425000", "130406.427000", "130406.430000", "130406.433000", "130406.435000", "130406.438000", "130406.440000", "130406.443000", "130406.445000", "130406.448000", "130406.450000", "130406.453000", "130406.456000", "130406.458000", "130406.461000", "130406.464000", "130406.466000", "130406.469000", "130406.471000", "130406.474000", "130446.424000", "130446.427000", "130446.430000", "130446.433000", "130446.435000", "130446.438000", "130446.440000", "130446.443000", "130446.445000", "130446.448000", "130446.450000", "130446.453000", "130446.456000", "130446.458000", "130446.461000", "130446.463000", "130446.466000", "130446.468000", "130446.471000", "130446.474000", "130526.423000", "130526.426000", "130526.429000", "130526.431000", "130526.434000", "130526.437000", "130526.439000", "130526.442000", "130526.444000", "130526.447000", "130526.450000", "130526.452000", "130526.455000", "130526.457000", "130526.460000", "130526.463000", "130526.465000", "130526.468000", "130526.470000", "130526.473000", "130606.425000", "130606.427000", "130606.430000", "130606.433000", "130606.435000", "130606.438000", "130606.440000", "130606.443000", "130606.446000", "130606.448000", "130606.451000", "130606.453000", "130606.456000", "130606.459000", "130606.461000", "130606.464000", "130606.466000", "130606.469000", "130606.472000", "130606.474000", "130646.424000", "130646.427000", "130646.430000", "130646.432000", "130646.435000", "130646.438000", "130646.440000", "130646.443000", "130646.445000", "130646.448000", "130646.450000", "130646.453000", "130646.456000", "130646.458000", "130646.461000", "130646.463000", "130646.466000", "130646.468000", "130646.471000", "130646.474000", "130726.424000", "130726.427000", "130726.430000", "130726.433000", "130726.435000", "130726.438000", "130726.440000", "130726.443000", "130726.445000", "130726.448000", "130726.451000", "130726.453000", "130726.456000", "130726.458000", "130726.461000", "130726.464000", "130726.466000", "130726.469000", "130726.471000", "130726.474000", "130806.424000", "130806.427000", "130806.430000", "130806.432000", "130806.435000", "130806.437000", "130806.440000", "130806.443000", "130806.445000", "130806.448000", "130806.450000", "130806.453000", "130806.456000", "130806.458000", "130806.461000", "130806.463000", "130806.466000", "130806.468000", "130806.471000", "130806.474000", "130846.424000", "130846.427000", "130846.430000", "130846.433000", "130846.435000", "130846.438000", "130846.440000", "130846.443000", "130846.445000", "130846.448000", "130846.450000", "130846.465000", "130846.468000", "130846.471000", "130846.473000", "130846.476000", "130846.479000", "130846.481000", "130846.484000", "130846.486000", "130926.425000", "130926.427000", "130926.430000", "130926.433000", "130926.435000", "130926.438000", "130926.440000", "130926.443000", "130926.445000", "130926.448000", "130926.450000", "130926.453000", "130926.456000", "130926.458000", "130926.461000", "130926.463000", "130926.466000", "130926.468000", "130926.471000", "130926.473000", "131006.423000", "131006.426000", "131006.429000", "131006.431000", "131006.434000", "131006.436000", "131006.439000", "131006.442000", "131006.444000", "131006.447000", "131006.449000", "131006.452000", "131006.454000", "131006.457000", "131006.459000", "131006.462000", "131006.465000", "131006.467000", "131006.470000", "131006.472000", "131046.425000", "131046.427000", "131046.430000", "131046.433000", "131046.435000", "131046.438000", "131046.440000", "131046.443000", "131046.445000", "131046.448000", "131046.450000", "131046.453000", "131046.456000", "131046.458000", "131046.461000", "131046.463000", "131046.466000", "131046.468000", "131046.471000", "131046.474000", "131126.425000", "131126.427000", "131126.430000", "131126.433000", "131126.435000", "131126.438000", "131126.440000", "131126.443000", "131126.445000", "131126.448000", "131126.451000", "131126.453000", "131126.456000", "131126.458000", "131126.461000", "131126.464000", "131126.466000", "131126.469000", "131126.471000", "131126.474000", "131206.424000", "131206.427000", "131206.430000", "131206.432000", "131206.435000", "131206.437000", "131206.440000", "131206.443000", "131206.445000", "131206.448000", "131206.450000", "131206.453000", "131206.456000", "131206.458000", "131206.461000", "131206.464000", "131206.466000", "131206.469000", "131206.471000", "131206.474000", "131246.425000", "131246.428000", "131246.430000", "131246.433000", "131246.435000", "131246.438000", "131246.441000", "131246.443000", "131246.446000", "131246.448000", "131246.451000", "131246.454000", "131246.457000", "131246.459000", "131246.462000", "131246.465000", "131246.467000", "131246.470000", "131246.472000", "131246.475000", "131326.425000", "131326.427000", "131326.430000", "131326.433000", "131326.435000", "131326.438000", "131326.441000", "131326.443000", "131326.446000", "131326.448000", "131326.451000", "131326.454000", "131326.456000", "131326.459000", "131326.461000", "131326.464000", "131326.466000", "131326.469000", "131326.472000", "131326.474000", "131358.922000", "131358.924000", "131358.927000", "131358.930000", "131358.932000", "131358.935000", "131358.938000", "131358.940000", "131358.943000", "131358.945000", "131358.948000", "131358.950000", "131358.953000", "131358.956000", "131358.958000", "131358.961000", "131358.976000"],
