{
  "AcquisitionMatrixPE": 96,
  "AcquisitionNumber": 1,
  "AcquisitionTime": "11:00:54.170000",
  "BandwidthPerPixelPhaseEncode": 20.425,
  "BaseResolution": 96,
  "BodyPartExamined": "BRAIN",
  "CoilCombinationMethod": "Sum of Squares",
  "ConsistencyInfo": "N4_VE11C_LATEST_20160120",
  "ConversionSoftware": "dcm2niix",
  "ConversionSoftwareVersion": "v1.0.20211006",
  "DerivedVendorReportedEchoSpacing": 0.000509996,
  "DeviceSerialNumber": "166054",
  "DwellTime": 2.3e-06,
  "EchoTime": 0.03,
  "EchoTrainLength": 96,
  "EffectiveEchoSpacing": 0.000509996,
  "FlipAngle": 75,
  "HeudiconvVersion": "0.11.3+d20220512",
  "ImageComments": "Unaliased MB2/PE2",
  "ImageOrientationPatientDICOM": [0.996255, 0.0575704, -0.0645035, -0.0694903, 0.977079, -0.201217],
  "ImageOrientationText": "Tra>Cor(-11.8)>Sag(-2.9)",
  "ImageType": [
    "ORIGINAL",
    "PRIMARY",
    "M",
    "MB",
    "ND",
    "MOSAIC"
],
  "ImagingFrequency": 123.259,
  "InPlanePhaseEncodingDirectionDICOM": "COL",
  "InstitutionAddress": "Street StreetNo,City,District,IL,ZIP",
  "InstitutionName": "Weizmann Institute",
  "InstitutionalDepartmentName": "Department",
  "MRAcquisitionType": "2D",
  "MagneticFieldStrength": 3,
  "Manufacturer": "Siemens",
  "ManufacturersModelName": "Prisma",
  "MatrixCoilMode": "SENSE",
  "Modality": "MR",
  "MultibandAccelerationFactor": 2,
  "PartialFourier": 1,
  "PatientPosition": "HFS",
  "PercentPhaseFOV": 100,
  "PercentSampling": 100,
  "PhaseEncodingDirection": "j-",
  "PhaseEncodingSteps": 96,
  "PhaseResolution": 1,
  "PixelBandwidth": 2265,
  "ProcedureStepDescription": "Weizmann^Sobel",
  "ProtocolName": "EPI_PSAP_iso2.5",
  "PulseSequenceDetails": "%CustomerSeq%\\cmrr_mbep2d_bold",
  "ReceiveCoilActiveElements": "HEA;HEP",
  "ReceiveCoilName": "Head_32",
  "ReconMatrixPE": 96,
  "RepetitionTime": 2,
  "SAR": 0.0890103,
  "ScanOptions": "FS",
  "ScanningSequence": "EP",
  "SequenceName": "epfid2d1_96",
  "SequenceVariant": "SK\\SS",
  "SeriesDescription": "EPI_PSAP_iso2.5",
  "SeriesNumber": 6,
  "ShimSetting": [5885, -4097, -1956, 450, 59, -228, 164, 16],
  "SliceThickness": 2.5,
  "SliceTiming": [0, 0.92, 1.84, 0.78, 1.6975, 0.6375, 1.5575, 0.495, 1.415, 0.355, 1.275, 0.2125, 1.1325, 0.0725, 0.99, 1.91, 0.85, 1.77, 0.7075, 1.6275, 0.5675, 1.485, 0.425, 1.345, 0.285, 1.2025, 0.1425, 1.0625, 0, 0.92, 1.84, 0.78, 1.6975, 0.6375, 1.5575, 0.495, 1.415, 0.355, 1.275, 0.2125, 1.1325, 0.0725, 0.99, 1.91, 0.85, 1.77, 0.7075, 1.6275, 0.5675, 1.485, 0.425, 1.345, 0.285, 1.2025, 0.1425, 1.0625],
  "SoftwareVersions": "syngo MR E11",
  "SpacingBetweenSlices": 2.5,
  "StationName": "AWP166054",
  "TaskName": "PSAP",
  "TotalReadoutTime": 0.0484496,
  "TxRefAmp": 244.7,
  "VendorReportedEchoSpacing": 0.00051,
  "WipMemBlock": "95a273bf-b80a-440b-864a-c1285a8c6876||Sequence: R016 ve11c/master r/e634e98; Dec 19 2017 11:00:25 by eja",
  "dcmmeta_affine": [
    [-2.4906387329101562, -0.1737256497144699, -0.12860219180583954, 127.22086334228516],
    [-0.14392602443695068, 2.4426965713500977, -0.5123655796051025, -81.07705688476562],
    [-0.16125886142253876, 0.5030432939529419, 2.4435513019561768, -91.91564178466797],
    [0.0, 0.0, 0.0, 1.0]
],
  "dcmmeta_reorient_transform": [
    [0.0, -1.0, 0.0, 95.0],
    [1.0, 0.0, 0.0, 0.0],
    [0.0, 0.0, 1.0, 0.0],
    [0.0, 0.0, 0.0, 1.0]
],
  "dcmmeta_shape": [96, 96, 56, 497],
  "dcmmeta_slice_dim": 2,
  "dcmmeta_version": 0.6,
  "global": {
    "const": {
      "AcquisitionMatrix": [96, 0, 0, 96],
      "AngioFlag": "N",
      "BitsAllocated": 16,
      "BitsStored": 16,
      "BodyPartExamined": "BRAIN",
      "Columns": 768,
      "EchoNumbers": 1,
      "EchoTime": 30.0,
      "EchoTrainLength": 96,
      "FlipAngle": 75.0,
      "HighBit": 15,
      "ImageOrientationPatient": [0.99625545949419, 0.0575704083427, -0.0645035465016, -0.0694902569152, 0.97707865295592, -0.2012173206553],
      "ImagePositionPatient": [-889.1996975871, -1020.0843364108, 179.07900146477],
      "ImageType": [
        "ORIGINAL",
        "PRIMARY",
        "M",
        "MB",
        "ND",
        "MOSAIC"
],
      "ImagedNucleus": "1H",
      "ImagingFrequency": 123.259228,
      "InPlanePhaseEncodingDirection": "COL",
      "MRAcquisitionType": "2D",
      "MagneticFieldStrength": 3.0,
      "Manufacturer": "SIEMENS",
      "ManufacturerModelName": "Prisma",
      "Modality": "MR",
      "NumberOfAverages": 1.0,
      "NumberOfPhaseEncodingSteps": 96,
      "PercentPhaseFieldOfView": 100.0,
      "PercentSampling": 100.0,
      "PerformedProcedureStepStartTime": "105520.052000",
      "PhotometricInterpretation": "MONOCHROME2",
      "PixelBandwidth": 2265.0,
      "PixelRepresentation": 0,
      "PixelSpacing": [2.5, 2.5],
      "ProtocolName": "EPI_PSAP_iso2.5",
      "RepetitionTime": 2000.0,
      "Rows": 768,
      "SAR": 0.08901028111542,
      "SamplesPerPixel": 1,
      "ScanOptions": "FS",
      "ScanningSequence": "EP",
      "SequenceName": "epfid2d1_96",
      "SequenceVariant": [
        "SK",
        "SS"
],
      "SeriesDescription": "EPI_PSAP_iso2.5",
      "SeriesNumber": 6,
      "SeriesTime": "110142.972000",
      "SliceLocation": -79.768150045853,
      "SliceThickness": 2.5,
      "SmallestImagePixelValue": 0,
      "SoftwareVersions": "syngo MR E11",
      "SpacingBetweenSlices": 2.4999999772371,
      "SpecificCharacterSet": "ISO_IR 100",
      "StudyID": "1",
      "StudyTime": "105519.975000",
      "TransmitCoilName": "Body",
      "VariableFlipAngleFlag": "N",
      "WindowCenterWidthExplanation": "Algo1",
      "dBdt": 0.0},
    "slices": {}
  },
  "time": {
    "samples": {
      "AcquisitionNumber": [1, 2, 3, 4, 5, 6, 7, 8, 9, 10, 11, 12, 13, 14, 15, 16, 17, 18, 19, 20, 21, 22, 23, 24, 25, 26, 27, 28, 29, 30, 31, 32, 33, 34, 35, 36, 37, 38, 39, 40, 41, 42, 43, 44, 45, 46, 47, 48, 49, 50, 51, 52, 53, 54, 55, 56, 57, 58, 59, 60, 61, 62, 63, 64, 65, 66, 67, 68, 69, 70, 71, 72, 73, 74, 75, 76, 77, 78, 79, 80, 81, 82, 83, 84, 85, 86, 87, 88, 89, 90, 91, 92, 93, 94, 95, 96, 97, 98, 99, 100, 101, 102, 103, 104, 105, 106, 107, 108, 109, 110, 111, 112, 113, 114, 115, 116, 117, 118, 119, 120, 121, 122, 123, 124, 125, 126, 127, 128, 129, 130, 131, 132, 133, 134, 135, 136, 137, 138, 139, 140, 141, 142, 143, 144, 145, 146, 147, 148, 149, 150, 151, 152, 153, 154, 155, 156, 157, 158, 159, 160, 161, 162, 163, 164, 165, 166, 167, 168, 169, 170, 171, 172, 173, 174, 175, 176, 177, 178, 179, 180, 181, 182, 183, 184, 185, 186, 187, 188, 189, 190, 191, 192, 193, 194, 195, 196, 197, 198, 199, 200, 201, 202, 203, 204, 205, 206, 207, 208, 209, 210, 211, 212, 213, 214, 215, 216, 217, 218, 219, 220, 221, 222, 223, 224, 225, 226, 227, 228, 229, 230, 231, 232, 233, 234, 235, 236, 237, 238, 239, 240, 241, 242, 243, 244, 245, 246, 247, 248, 249, 250, 251, 252, 253, 254, 255, 256, 257, 258, 259, 260, 261, 262, 263, 264, 265, 266, 267, 268, 269, 270, 271, 272, 273, 274, 275, 276, 277, 278, 279, 280, 281, 282, 283, 284, 285, 286, 287, 288, 289, 290, 291, 292, 293, 294, 295, 296, 297, 298, 299, 300, 301, 302, 303, 304, 305, 306, 307, 308, 309, 310, 311, 312, 313, 314, 315, 316, 317, 318, 319, 320, 321, 322, 323, 324, 325, 326, 327, 328, 329, 330, 331, 332, 333, 334, 335, 336, 337, 338, 339, 340, 341, 342, 343, 344, 345, 346, 347, 348, 349, 350, 351, 352, 353, 354, 355, 356, 357, 358, 359, 360, 361, 362, 363, 364, 365, 366, 367, 368, 369, 370, 371, 372, 373, 374, 375, 376, 377, 378, 379, 380, 381, 382, 383, 384, 385, 386, 387, 388, 389, 390, 391, 392, 393, 394, 395, 396, 397, 398, 399, 400, 401, 402, 403, 404, 405, 406, 407, 408, 409, 410, 411, 412, 413, 414, 415, 416, 417, 418, 419, 420, 421, 422, 423, 424, 425, 426, 427, 428, 429, 430, 431, 432, 433, 434, 435, 436, 437, 438, 439, 440, 441, 442, 443, 444, 445, 446, 447, 448, 449, 450, 451, 452, 453, 454, 455, 456, 457, 458, 459, 460, 461, 462, 463, 464, 465, 466, 467, 468, 469, 470, 471, 472, 473, 474, 475, 476, 477, 478, 479, 480, 481, 482, 483, 484, 485, 486, 487, 488, 489, 490, 491, 492, 493, 494, 495, 496, 497],
      "AcquisitionTime": ["110054.170000", "110056.170000", "110058.170000", "110100.170000", "110102.170000", "110104.170000", "110106.170000", "110108.170000", "110110.170000", "110112.170000", "110114.170000", "110116.170000", "110118.170000", "110120.170000", "110122.170000", "110124.170000", "110126.170000", "110128.170000", "110130.170000", "110132.170000", "110134.170000", "110136.170000", "110138.170000", "110140.170000", "110142.170000", "110144.170000", "110146.170000", "110148.170000", "110150.170000", "110152.170000", "110154.170000", "110156.170000", "110158.170000", "110200.170000", "110202.170000", "110204.170000", "110206.170000", "110208.170000", "110210.170000", "110212.170000", "110214.170000", "110216.170000", "110218.170000", "110220.170000", "110222.170000", "110224.170000", "110226.170000", "110228.170000", "110230.170000", "110232.170000", "110234.170000", "110236.170000", "110238.170000", "110240.170000", "110242.170000", "110244.170000", "110246.170000", "110248.170000", "110250.170000", "110252.170000", "110254.170000", "110256.170000", "110258.170000", "110300.170000", "110302.170000", "110304.170000", "110306.170000", "110308.170000", "110310.170000", "110312.170000", "110314.170000", "110316.170000", "110318.170000", "110320.170000", "110322.170000", "110324.170000", "110326.170000", "110328.170000", "110330.170000", "110332.170000", "110334.170000", "110336.170000", "110338.170000", "110340.170000", "110342.170000", "110344.170000", "110346.170000", "110348.170000", "110350.170000", "110352.170000", "110354.170000", "110356.170000", "110358.170000", "110400.170000", "110402.170000", "110404.170000", "110406.170000", "110408.170000", "110410.170000", "110412.170000", "110414.170000", "110416.170000", "110418.170000", "110420.170000", "110422.170000", "110424.170000", "110426.170000", "110428.170000", "110430.170000", "110432.170000", "110434.170000", "110436.170000", "110438.170000", "110440.170000", "110442.170000", "110444.170000", "110446.170000", "110448.170000", "110450.170000", "110452.170000", "110454.170000", "110456.170000", "110458.170000", "110500.170000", "110502.170000", "110504.170000", "110506.170000", "110508.170000", "110510.170000", "110512.170000", "110514.170000", "110516.170000", "110518.170000", "110520.170000", "110522.170000", "110524.170000", "110526.170000", "110528.170000", "110530.170000", "110532.170000", "110534.170000", "110536.170000", "110538.170000", "110540.170000", "110542.170000", "110544.170000", "110546.170000", "110548.170000", "110550.170000", "110552.170000", "110554.170000", "110556.170000", "110558.170000", "110600.170000", "110602.170000", "110604.170000", "110606.170000", "110608.170000", "110610.170000", "110612.170000", "110614.170000", "110616.170000", "110618.170000", "110620.170000", "110622.170000", "110624.170000", "110626.170000", "110628.170000", "110630.170000", "110632.170000", "110634.170000", "110636.170000", "110638.170000", "110640.170000", "110642.170000", "110644.170000", "110646.170000", "110648.170000", "110650.170000", "110652.170000", "110654.170000", "110656.170000", "110658.170000", "110700.170000", "110702.170000", "110704.170000", "110706.170000", "110708.170000", "110710.170000", "110712.170000", "110714.170000", "110716.170000", "110718.170000", "110720.170000", "110722.170000", "110724.170000", "110726.170000", "110728.170000", "110730.170000", "110732.170000", "110734.170000", "110736.170000", "110738.170000", "110740.170000", "110742.170000", "110744.170000", "110746.170000", "110748.170000", "110750.170000", "110752.170000", "110754.170000", "110756.170000", "110758.170000", "110800.170000", "110802.170000", "110804.170000", "110806.170000", "110808.170000", "110810.170000", "110812.170000", "110814.170000", "110816.170000", "110818.170000", "110820.170000", "110822.170000", "110824.170000", "110826.170000", "110828.170000", "110830.170000", "110832.170000", "110834.170000", "110836.170000", "110838.170000", "110840.170000", "110842.170000", "110844.170000", "110846.170000", "110848.170000", "110850.170000", "110852.170000", "110854.170000", "110856.170000", "110858.170000", "110900.170000", "110902.170000", "110904.170000", "110906.170000", "110908.170000", "110910.170000", "110912.170000", "110914.170000", "110916.170000", "110918.170000", "110920.170000", "110922.170000", "110924.170000", "110926.170000", "110928.170000", "110930.170000", "110932.170000", "110934.170000", "110936.170000", "110938.170000", "110940.170000", "110942.170000", "110944.170000", "110946.170000", "110948.170000", "110950.170000", "110952.170000", "110954.170000", "110956.170000", "110958.170000", "111000.170000", "111002.170000", "111004.170000", "111006.170000", "111008.170000", "111010.170000", "111012.170000", "111014.170000", "111016.170000", "111018.170000", "111020.170000", "111022.170000", "111024.170000", "111026.170000", "111028.170000", "111030.170000", "111032.170000", "111034.170000", "111036.170000", "111038.170000", "111040.170000", "111042.170000", "111044.170000", "111046.170000", "111048.170000", "111050.170000", "111052.170000", "111054.170000", "111056.170000", "111058.170000", "111100.170000", "111102.170000", "111104.170000", "111106.170000", "111108.170000", "111110.170000", "111112.170000", "111114.170000", "111116.170000", "111118.170000", "111120.170000", "111122.170000", "111124.170000", "111126.170000", "111128.170000", "111130.170000", "111132.170000", "111134.170000", "111136.170000", "111138.170000", "111140.170000", "111142.170000", "111144.170000", "111146.170000", "111148.170000", "111150.170000", "111152.170000", "111154.170000", "111156.170000", "111158.170000", "111200.170000", "111202.170000", "111204.170000", "111206.170000", "111208.170000", "111210.170000", "111212.170000", "111214.170000", "111216.170000", "111218.170000", "111220.170000", "111222.170000", "111224.170000", "111226.170000", "111228.170000", "111230.170000", "111232.170000", "111234.170000", "111236.170000", "111238.170000", "111240.170000", "111242.170000", "111244.170000", "111246.170000", "111248.170000", "111250.170000", "111252.170000", "111254.170000", "111256.170000", "111258.170000", "111300.170000", "111302.170000", "111304.170000", "111306.170000", "111308.170000", "111310.170000", "111312.170000", "111314.170000", "111316.170000", "111318.170000", "111320.170000", "111322.170000", "111324.170000", "111326.170000", "111328.170000", "111330.170000", "111332.170000", "111334.170000", "111336.170000", "111338.170000", "111340.170000", "111342.170000", "111344.170000", "111346.170000", "111348.170000", "111350.170000", "111352.170000", "111354.170000", "111356.170000", "111358.170000", "111400.170000", "111402.170000", "111404.170000", "111406.170000", "111408.170000", "111410.170000", "111412.170000", "111414.170000", "111416.170000", "111418.170000", "111420.170000", "111422.170000", "111424.170000", "111426.170000", "111428.170000", "111430.170000", "111432.170000", "111434.170000", "111436.170000", "111438.170000", "111440.170000", "111442.170000", "111444.170000", "111446.170000", "111448.170000", "111450.170000", "111452.170000", "111454.170000", "111456.170000", "111458.170000", "111500.170000", "111502.170000", "111504.170000", "111506.170000", "111508.170000", "111510.170000", "111512.170000", "111514.170000", "111516.170000", "111518.170000", "111520.170000", "111522.170000", "111524.170000", "111526.170000", "111528.170000", "111530.170000", "111532.170000", "111534.170000", "111536.170000", "111538.170000", "111540.170000", "111542.170000", "111544.170000", "111546.170000", "111548.170000", "111550.170000", "111552.170000", "111554.170000", "111556.170000", "111558.170000", "111600.170000", "111602.170000", "111604.170000", "111606.170000", "111608.170000", "111610.170000", "111612.170000", "111614.170000", "111616.170000", "111618.170000", "111620.170000", "111622.170000", "111624.170000", "111626.170000", "111628.170000", "111630.170000", "111632.170000", "111634.170000", "111636.170000", "111638.170000", "111640.170000", "111642.170000", "111644.170000", "111646.170000", "111648.170000", "111650.170000", "111652.170000", "111654.170000", "111656.170000", "111658.170000", "111700.170000", "111702.170000", "111704.170000", "111706.170000", "111708.170000", "111710.170000", "111712.170000", "111714.170000", "111716.170000", "111718.170000", "111720.170000", "111722.170000", "111724.170000", "111726.170000"],
      "ContentTime": ["110142.975000", "110142.978000", "110142.981000", "110142.983000", "110142.986000", "110142.988000", "110142.997000", "110143.005000", "110143.008000", "110143.010000", "110143.013000", "110143.020000", "110143.023000", "110143.025000", "110143.028000", "110143.031000", "110143.033000", "110143.036000", "110143.038000", "110143.041000", "110143.043000", "110143.046000", "110143.048000", "110143.051000", "110222.941000", "110222.944000", "110222.947000", "110222.949000", "110222.952000", "110222.955000", "110222.957000", "110222.960000", "110222.962000", "110222.965000", "110222.967000", "110222.970000", "110222.972000", "110222.975000", "110222.977000", "110222.980000", "110222.982000", "110222.985000", "110222.988000", "110222.990000", "110302.942000", "110302.944000", "110302.947000", "110302.949000", "110302.952000", "110302.954000", "110302.957000", "110302.959000", "110302.962000", "110302.965000", "110302.967000", "110302.970000", "110302.972000", "110302.975000", "110302.977000", "110302.988000", "110302.990000", "110302.993000", "110302.995000", "110302.998000", "110342.943000", "110342.945000", "110342.948000", "110342.951000", "110342.953000", "110342.956000", "110342.958000", "110342.961000", "110342.963000", "110342.966000", "110342.968000", "110342.971000", "110342.973000", "110342.976000", "110342.978000", "110342.981000", "110342.983000", "110342.986000", "110342.989000", "110342.991000", "110422.942000", "110422.944000", "110422.947000", "110422.949000", "110422.952000", "110422.954000", "110422.957000", "110422.959000", "110422.962000", "110422.965000", "110422.967000", "110422.970000", "110422.972000", "110422.975000", "110422.977000", "110422.980000", "110422.983000", "110422.985000", "110422.988000", "110422.991000", "110502.941000", "110502.944000", "110502.947000", "110502.949000", "110502.952000", "110502.955000", "110502.957000", "110502.960000", "110502.963000", "110502.965000", "110502.968000", "110502.970000", "110502.973000", "110502.975000", "110502.978000", "110502.981000", "110502.983000", "110502.986000", "110502.988000", "110502.991000", "110542.943000", "110542.945000", "110542.948000", "110542.950000", "110542.953000", "110542.956000", "110542.958000", "110542.961000", "110542.963000", "110542.966000", "110542.968000", "110542.971000", "110542.973000", "110542.976000", "110542.979000", "110542.981000", "110542.984000", "110542.986000", "110542.989000", "110542.991000", "110622.942000", "110622.945000", "110622.948000", "110622.951000", "110622.953000", "110622.956000", "110622.958000", "110622.961000", "110622.964000", "110622.966000", "110622.969000", "110622.971000", "110622.974000", "110622.976000", "110622.979000", "110622.982000", "110622.984000", "110622.987000", "110622.989000", "110622.992000", "110702.942000", "110702.944000", "110702.947000", "110702.950000", "110702.952000", "110702.955000", "110702.957000", "110702.960000", "110702.963000", "110702.965000", "110702.968000", "110702.971000", "110702.973000", "110702.976000", "110702.978000", "110702.981000", "110702.983000", "110702.986000", "110702.989000", "110702.991000", "110742.942000", "110742.944000", "110742.947000", "110742.950000", "110742.952000", "110742.955000", "110742.957000", "110742.960000", "110742.972000", "110742.974000", "110742.977000", "110742.980000", "110742.982000", "110742.985000", "110742.987000", "110742.990000", "110742.992000", "110742.995000", "110742.997000", "110743.001000", "110822.943000", "110822.946000", "110822.948000", "110822.951000", "110822.954000", "110822.956000", "110822.959000", "110822.961000", "110822.964000", "110822.967000", "110822.969000", "110822.972000", "110822.974000", "110822.977000", "110822.979000", "110822.982000", "110822.985000", "110822.987000", "110822.990000", "110822.993000", "110902.942000", "110902.944000", "110902.947000", "110902.950000", "110902.953000", "110902.955000", "110902.958000", "110902.961000", "110902.963000", "110902.966000", "110902.968000", "110902.971000", "110902.974000", "110902.976000", "110902.979000", "110902.981000", "110902.984000", "110902.987000", "110902.989000", "110902.992000", "110942.942000", "110942.944000", "110942.947000", "110942.950000", "110942.952000", "110942.955000", "110942.958000", "110942.960000", "110942.963000", "110942.965000", "110942.968000", "110942.971000", "110942.973000", "110942.976000", "110942.978000", "110942.981000", "110942.984000", "110942.986000", "110942.989000", "110942.992000", "111022.943000", "111022.945000", "111022.948000", "111022.951000", "111022.954000", "111022.956000", "111022.959000", "111022.978000", "111022.980000", "111022.983000", "111022.985000", "111022.988000", "111022.991000", "111022.993000", "111022.996000", "111022.998000", "111023.001000", "111023.004000", "111023.006000", "111023.009000", "111102.943000", "111102.945000", "111102.948000", "111102.950000", "111102.953000", "111102.956000", "111102.958000", "111102.961000", "111102.963000", "111102.966000", "111102.969000", "111102.971000", "111102.974000", "111102.976000", "111102.979000", "111102.981000", "111102.984000", "111102.986000", "111102.989000", "111102.992000", "111142.942000", "111142.944000", "111142.947000", "111142.949000", "111142.952000", "111142.955000", "111142.957000", "111142.960000", "111142.962000", "111142.965000", "111142.967000", "111142.970000", "111142.973000", "111142.975000", "111142.978000", "111142.980000", "111142.983000", "111142.986000", "111142.988000", "111142.991000", "111222.942000", "111222.944000", "111222.947000", "111222.950000", "111222.952000", "111222.955000", "111222.957000", "111222.960000", "111222.962000", "111222.965000", "111222.968000", "111222.970000", "111222.973000", "111222.975000", "111222.978000", "111222.980000", "111222.983000", "111222.985000", "111222.988000", "111222.990000", "111302.943000", "111302.946000", "111302.948000", "111302.951000", "111302.953000", "111302.956000", "111302.958000", "111302.961000", "111302.963000", "111302.966000", "111302.968000", "111302.971000", "111302.974000", "111302.976000", "111302.979000", "111302.981000", "111302.984000", "111302.987000", "111302.989000", "111302.992000", "111322.943000", "111322.946000", "111322.948000", "111322.951000", "111322.953000", "111322.956000", "111322.958000", "111322.973000", "111322.976000", "111322.978000", "111402.942000", "111402.944000", "111402.947000", "111402.950000", "111402.952000", "111402.955000", "111402.957000", "111402.960000", "111402.962000", "111402.965000", "111402.967000", "111402.970000", "111402.973000", "111402.975000", "111402.978000", "111402.980000", "111402.983000", "111402.985000", "111402.988000", "111402.990000", "111442.942000", "111442.944000", "111442.947000", "111442.950000", "111442.952000", "111442.955000", "111442.957000", "111442.960000", "111442.963000", "111442.965000", "111442.968000", "111442.970000", "111442.973000", "111442.975000", "111442.978000", "111442.980000", "111442.983000", "111442.986000", "111442.988000", "111442.991000", "111522.943000", "111522.945000", "111522.948000", "111522.951000", "111522.953000", "111522.956000", "111522.958000", "111522.961000", "111522.963000", "111522.966000", "111522.968000", "111522.971000", "111522.974000", "111522.976000", "111522.979000", "111522.982000", "111522.984000", "111522.994000", "111522.996000", "111523.000000", "111602.942000", "111602.944000", "111602.947000", "111602.950000", "111602.952000", "111602.955000", "111602.957000", "111602.960000", "111602.963000", "111602.965000", "111602.968000", "111602.970000", "111602.973000", "111602.975000", "111602.978000", "111602.981000", "111602.983000", "111602.986000", "111602.988000", "111602.991000", "111642.942000", "111642.944000", "111642.947000", "111642.950000", "111642.952000", "111642.955000", "111642.957000", "111642.960000", "111642.962000", "111642.965000", "111642.968000", "111642.970000", "111642.973000", "111642.975000", "111642.978000", "111642.981000", "111642.983000", "111642.986000", "111642.988000", "111642.991000", "111722.943000", "111722.946000", "111722.948000", "111722.951000", "111722.954000", "111722.956000", "111722.959000", "111722.961000", "111722.964000", "111722.967000", "111722.969000", "111722.972000", "111722.975000", "111722.977000", "111722.980000", "111722.982000", "111722.985000", "111722.988000", "111722.990000", "111722.993000", "111728.435000", "111728.437000", "111728.440000"],
