{
  "AcquisitionMatrixPE": 96,
  "AcquisitionNumber": 1,
  "AcquisitionTime": "11:29:1.002500",
  "BandwidthPerPixelPhaseEncode": 20.425,
  "BaseResolution": 96,
  "BodyPartExamined": "BRAIN",
  "CoilCombinationMethod": "Sum of Squares",
  "ConsistencyInfo": "N4_VE11C_LATEST_20160120",
  "ConversionSoftware": "dcm2niix",
  "ConversionSoftwareVersion": "v1.0.20211006",
  "DerivedVendorReportedEchoSpacing": 0.000509996,
  "DeviceSerialNumber": "166054",
  "DwellTime": 2.3e-06,
  "EchoTime": 0.03,
  "EchoTrainLength": 96,
  "EffectiveEchoSpacing": 0.000509996,
  "FlipAngle": 75,
  "HeudiconvVersion": "0.11.3+d20220512",
  "ImageComments": "Unaliased MB2/PE2",
  "ImageOrientationPatientDICOM": [0.997869, 0.0651283, 0.00404284, -0.0627806, 0.9751, -0.212694],
  "ImageOrientationText": "Tra>Cor(-12.2)>Sag(1.0)",
  "ImageType": [
    "ORIGINAL",
    "PRIMARY",
    "M",
    "MB",
    "ND",
    "MOSAIC"
],
  "ImagingFrequency": 123.26,
  "InPlanePhaseEncodingDirectionDICOM": "COL",
  "InstitutionAddress": "Street StreetNo,City,District,IL,ZIP",
  "InstitutionName": "Weizmann Institute",
  "InstitutionalDepartmentName": "Department",
  "MRAcquisitionType": "2D",
  "MagneticFieldStrength": 3,
  "Manufacturer": "Siemens",
  "ManufacturersModelName": "Prisma",
  "MatrixCoilMode": "SENSE",
  "Modality": "MR",
  "MultibandAccelerationFactor": 2,
  "PartialFourier": 1,
  "PatientPosition": "HFS",
  "PercentPhaseFOV": 100,
  "PercentSampling": 100,
  "PhaseEncodingDirection": "j-",
  "PhaseEncodingSteps": 96,
  "PhaseResolution": 1,
  "PixelBandwidth": 2265,
  "ProcedureStepDescription": "Weizmann^Sobel",
  "ProtocolName": "EPI_PSAP_iso2.5",
  "PulseSequenceDetails": "%CustomerSeq%\\cmrr_mbep2d_bold",
  "ReceiveCoilActiveElements": "HEA;HEP",
  "ReceiveCoilName": "Head_32",
  "ReconMatrixPE": 96,
  "RepetitionTime": 2,
  "SAR": 0.0973179,
  "ScanOptions": "FS",
  "ScanningSequence": "EP",
  "SequenceName": "epfid2d1_96",
  "SequenceVariant": "SK\\SS",
  "SeriesDescription": "EPI_PSAP_iso2.5",
  "SeriesNumber": 6,
  "ShimSetting": [5889, -4087, -1924, 352, -50, -39, 110, 35],
  "SliceThickness": 2.5,
  "SliceTiming": [0, 0.9175, 1.8375, 0.7775, 1.6975, 0.635, 1.555, 0.495, 1.4125, 0.3525, 1.2725, 0.2125, 1.13, 0.07, 0.99, 1.9075, 0.8475, 1.7675, 0.7075, 1.625, 0.565, 1.485, 0.4225, 1.3425, 0.2825, 1.2025, 0.14, 1.06, 0, 0.9175, 1.8375, 0.7775, 1.6975, 0.635, 1.555, 0.495, 1.4125, 0.3525, 1.2725, 0.2125, 1.13, 0.07, 0.99, 1.9075, 0.8475, 1.7675, 0.7075, 1.625, 0.565, 1.485, 0.4225, 1.3425, 0.2825, 1.2025, 0.14, 1.06],
  "SoftwareVersions": "syngo MR E11",
  "SpacingBetweenSlices": 2.5,
  "StationName": "AWP166054",
  "TaskName": "PSAP",
  "TotalReadoutTime": 0.0484496,
  "TxRefAmp": 245.5,
  "VendorReportedEchoSpacing": 0.00051,
  "WipMemBlock": "a0c814c9-af83-4f53-9ef8-d6763a5bfcc0||Sequence: R016 ve11c/master r/e634e98; Dec 19 2017 11:00:25 by eja",
  "dcmmeta_affine": [
    [-2.4946718215942383, -0.1569514125585556, 0.04448642581701279, 125.0800552368164],
    [-0.16282086074352264, 2.4377498626708984, -0.5299667716026306, -86.95890045166016],
    [0.010107099078595638, 0.5317345857620239, 2.4427764415740967, -99.4862060546875],
    [0.0, 0.0, 0.0, 1.0]
],
  "dcmmeta_reorient_transform": [
    [0.0, -1.0, 0.0, 95.0],
    [1.0, 0.0, 0.0, 0.0],
    [0.0, 0.0, 1.0, 0.0],
    [0.0, 0.0, 0.0, 1.0]
],
  "dcmmeta_shape": [96, 96, 56, 490],
  "dcmmeta_slice_dim": 2,
  "dcmmeta_version": 0.6,
  "global": {
    "const": {
      "AcquisitionMatrix": [96, 0, 0, 96],
      "AngioFlag": "N",
      "BitsAllocated": 16,
      "BitsStored": 16,
      "BodyPartExamined": "BRAIN",
      "Columns": 768,
      "EchoNumbers": 1,
      "EchoTime": 30.0,
      "EchoTrainLength": 96,
      "FlipAngle": 75.0,
      "HighBit": 15,
      "ImageOrientationPatient": [0.99786870583104, 0.0651283453708, 0.00404283963808, -0.0627805637103, 0.97509995970164, -0.2126938396148],
      "ImagePositionPatient": [-895.64370881453, -1018.4191129788, 126.29542323447],
      "ImageType": [
        "ORIGINAL",
        "PRIMARY",
        "M",
        "MB",
        "ND",
        "MOSAIC"
],
      "ImagedNucleus": "1H",
      "ImagingFrequency": 123.259678,
      "InPlanePhaseEncodingDirection": "COL",
      "MRAcquisitionType": "2D",
      "MagneticFieldStrength": 3.0,
      "Manufacturer": "SIEMENS",
      "ManufacturerModelName": "Prisma",
      "Modality": "MR",
      "NumberOfAverages": 1.0,
      "NumberOfPhaseEncodingSteps": 96,
      "PercentPhaseFieldOfView": 100.0,
      "PercentSampling": 100.0,
      "PerformedProcedureStepStartTime": "104504.400000",
      "PhotometricInterpretation": "MONOCHROME2",
      "PixelBandwidth": 2265.0,
      "PixelRepresentation": 0,
      "PixelSpacing": [2.5, 2.5],
      "ProtocolName": "EPI_PSAP_iso2.5",
      "RepetitionTime": 2000.0,
      "Rows": 768,
      "SAR": 0.0973178521563,
      "SamplesPerPixel": 1,
      "ScanOptions": "FS",
      "ScanningSequence": "EP",
      "SequenceName": "epfid2d1_96",
      "SequenceVariant": [
        "SK",
        "SS"
],
      "SeriesDescription": "EPI_PSAP_iso2.5",
      "SeriesNumber": 6,
      "SeriesTime": "112949.907000",
      "SliceLocation": -76.549138934284,
      "SliceThickness": 2.5,
      "SmallestImagePixelValue": 0,
      "SoftwareVersions": "syngo MR E11",
      "SpacingBetweenSlices": 2.5000000201392,
      "SpecificCharacterSet": "ISO_IR 100",
      "StudyID": "1",
      "StudyTime": "104504.338000",
      "TransmitCoilName": "Body",
      "VariableFlipAngleFlag": "N",
      "WindowCenterWidthExplanation": "Algo1",
      "dBdt": 0.0},
    "slices": {}
  },
  "time": {
    "samples": {
      "AcquisitionNumber": [1, 2, 3, 4, 5, 6, 7, 8, 9, 10, 11, 12, 13, 14, 15, 16, 17, 18, 19, 20, 21, 22, 23, 24, 25, 26, 27, 28, 29, 30, 31, 32, 33, 34, 35, 36, 37, 38, 39, 40, 41, 42, 43, 44, 45, 46, 47, 48, 49, 50, 51, 52, 53, 54, 55, 56, 57, 58, 59, 60, 61, 62, 63, 64, 65, 66, 67, 68, 69, 70, 71, 72, 73, 74, 75, 76, 77, 78, 79, 80, 81, 82, 83, 84, 85, 86, 87, 88, 89, 90, 91, 92, 93, 94, 95, 96, 97, 98, 99, 100, 101, 102, 103, 104, 105, 106, 107, 108, 109, 110, 111, 112, 113, 114, 115, 116, 117, 118, 119, 120, 121, 122, 123, 124, 125, 126, 127, 128, 129, 130, 131, 132, 133, 134, 135, 136, 137, 138, 139, 140, 141, 142, 143, 144, 145, 146, 147, 148, 149, 150, 151, 152, 153, 154, 155, 156, 157, 158, 159, 160, 161, 162, 163, 164, 165, 166, 167, 168, 169, 170, 171, 172, 173, 174, 175, 176, 177, 178, 179, 180, 181, 182, 183, 184, 185, 186, 187, 188, 189, 190, 191, 192, 193, 194, 195, 196, 197, 198, 199, 200, 201, 202, 203, 204, 205, 206, 207, 208, 209, 210, 211, 212, 213, 214, 215, 216, 217, 218, 219, 220, 221, 222, 223, 224, 225, 226, 227, 228, 229, 230, 231, 232, 233, 234, 235, 236, 237, 238, 239, 240, 241, 242, 243, 244, 245, 246, 247, 248, 249, 250, 251, 252, 253, 254, 255, 256, 257, 258, 259, 260, 261, 262, 263, 264, 265, 266, 267, 268, 269, 270, 271, 272, 273, 274, 275, 276, 277, 278, 279, 280, 281, 282, 283, 284, 285, 286, 287, 288, 289, 290, 291, 292, 293, 294, 295, 296, 297, 298, 299, 300, 301, 302, 303, 304, 305, 306, 307, 308, 309, 310, 311, 312, 313, 314, 315, 316, 317, 318, 319, 320, 321, 322, 323, 324, 325, 326, 327, 328, 329, 330, 331, 332, 333, 334, 335, 336, 337, 338, 339, 340, 341, 342, 343, 344, 345, 346, 347, 348, 349, 350, 351, 352, 353, 354, 355, 356, 357, 358, 359, 360, 361, 362, 363, 364, 365, 366, 367, 368, 369, 370, 371, 372, 373, 374, 375, 376, 377, 378, 379, 380, 381, 382, 383, 384, 385, 386, 387, 388, 389, 390, 391, 392, 393, 394, 395, 396, 397, 398, 399, 400, 401, 402, 403, 404, 405, 406, 407, 408, 409, 410, 411, 412, 413, 414, 415, 416, 417, 418, 419, 420, 421, 422, 423, 424, 425, 426, 427, 428, 429, 430, 431, 432, 433, 434, 435, 436, 437, 438, 439, 440, 441, 442, 443, 444, 445, 446, 447, 448, 449, 450, 451, 452, 453, 454, 455, 456, 457, 458, 459, 460, 461, 462, 463, 464, 465, 466, 467, 468, 469, 470, 471, 472, 473, 474, 475, 476, 477, 478, 479, 480, 481, 482, 483, 484, 485, 486, 487, 488, 489, 490],
      "AcquisitionTime": ["112901.002500", "112903.002500", "112905.002500", "112907.002500", "112909.002500", "112911.002500", "112913.002500", "112915.002500", "112917.002500", "112919.002500", "112921.002500", "112923.002500", "112925.002500", "112927.002500", "112929.002500", "112931.002500", "112933.002500", "112935.002500", "112937.002500", "112939.002500", "112941.002500", "112943.002500", "112945.002500", "112947.002500", "112949.002500", "112951.002500", "112953.002500", "112955.002500", "112957.002500", "112959.002500", "113001.002500", "113003.002500", "113005.002500", "113007.002500", "113009.002500", "113011.002500", "113013.002500", "113015.002500", "113017.002500", "113019.002500", "113021.002500", "113023.002500", "113025.002500", "113027.002500", "113029.002500", "113031.002500", "113033.002500", "113035.002500", "113037.002500", "113039.002500", "113041.002500", "113043.002500", "113045.002500", "113047.002500", "113049.002500", "113051.002500", "113053.002500", "113055.002500", "113057.002500", "113059.002500", "113101.002500", "113103.002500", "113105.002500", "113107.002500", "113109.002500", "113111.002500", "113113.002500", "113115.002500", "113117.002500", "113119.002500", "113121.002500", "113123.002500", "113125.002500", "113127.002500", "113129.002500", "113131.002500", "113133.002500", "113135.002500", "113137.002500", "113139.002500", "113141.002500", "113143.002500", "113145.002500", "113147.002500", "113149.002500", "113151.002500", "113153.002500", "113155.002500", "113157.002500", "113159.002500", "113201.002500", "113203.002500", "113205.002500", "113207.002500", "113209.002500", "113211.002500", "113213.002500", "113215.002500", "113217.002500", "113219.002500", "113221.002500", "113223.002500", "113225.002500", "113227.002500", "113229.002500", "113231.002500", "113233.002500", "113235.002500", "113237.002500", "113239.002500", "113241.002500", "113243.002500", "113245.002500", "113247.002500", "113249.002500", "113251.002500", "113253.002500", "113255.002500", "113257.002500", "113259.002500", "113301.002500", "113303.002500", "113305.002500", "113307.002500", "113309.002500", "113311.002500", "113313.002500", "113315.002500", "113317.002500", "113319.002500", "113321.002500", "113323.002500", "113325.002500", "113327.002500", "113329.002500", "113331.002500", "113333.002500", "113335.002500", "113337.002500", "113339.002500", "113341.002500", "113343.002500", "113345.002500", "113347.002500", "113349.002500", "113351.002500", "113353.002500", "113355.002500", "113357.002500", "113359.002500", "113401.002500", "113403.002500", "113405.002500", "113407.002500", "113409.002500", "113411.002500", "113413.002500", "113415.002500", "113417.002500", "113419.002500", "113421.002500", "113423.002500", "113425.002500", "113427.002500", "113429.002500", "113431.002500", "113433.002500", "113435.002500", "113437.002500", "113439.002500", "113441.002500", "113443.002500", "113445.002500", "113447.002500", "113449.002500", "113451.002500", "113453.002500", "113455.002500", "113457.002500", "113459.002500", "113501.002500", "113503.002500", "113505.002500", "113507.002500", "113509.002500", "113511.002500", "113513.002500", "113515.002500", "113517.002500", "113519.002500", "113521.002500", "113523.002500", "113525.002500", "113527.002500", "113529.002500", "113531.002500", "113533.002500", "113535.002500", "113537.002500", "113539.002500", "113541.002500", "113543.002500", "113545.002500", "113547.002500", "113549.002500", "113551.002500", "113553.002500", "113555.002500", "113557.002500", "113559.002500", "113601.002500", "113603.002500", "113605.002500", "113607.002500", "113609.002500", "113611.002500", "113613.002500", "113615.002500", "113617.002500", "113619.002500", "113621.002500", "113623.002500", "113625.002500", "113627.002500", "113629.002500", "113631.002500", "113633.002500", "113635.002500", "113637.002500", "113639.002500", "113641.002500", "113643.002500", "113645.002500", "113647.002500", "113649.002500", "113651.002500", "113653.002500", "113655.002500", "113657.002500", "113659.002500", "113701.002500", "113703.002500", "113705.002500", "113707.002500", "113709.002500", "113711.002500", "113713.002500", "113715.002500", "113717.002500", "113719.002500", "113721.002500", "113723.002500", "113725.002500", "113727.002500", "113729.002500", "113731.002500", "113733.002500", "113735.002500", "113737.002500", "113739.002500", "113741.002500", "113743.002500", "113745.002500", "113747.002500", "113749.002500", "113751.002500", "113753.002500", "113755.002500", "113757.002500", "113759.002500", "113801.002500", "113803.002500", "113805.002500", "113807.002500", "113809.002500", "113811.002500", "113813.002500", "113815.002500", "113817.002500", "113819.002500", "113821.002500", "113823.002500", "113825.002500", "113827.002500", "113829.002500", "113831.002500", "113833.002500", "113835.002500", "113837.002500", "113839.002500", "113841.002500", "113843.002500", "113845.002500", "113847.002500", "113849.002500", "113851.002500", "113853.002500", "113855.002500", "113857.002500", "113859.002500", "113901.002500", "113903.002500", "113905.002500", "113907.002500", "113909.002500", "113911.002500", "113913.002500", "113915.002500", "113917.002500", "113919.002500", "113921.002500", "113923.002500", "113925.002500", "113927.002500", "113929.002500", "113931.002500", "113933.002500", "113935.002500", "113937.002500", "113939.002500", "113941.002500", "113943.002500", "113945.002500", "113947.002500", "113949.002500", "113951.002500", "113953.002500", "113955.002500", "113957.002500", "113959.002500", "114001.002500", "114003.002500", "114005.002500", "114007.002500", "114009.002500", "114011.002500", "114013.002500", "114015.002500", "114017.002500", "114019.002500", "114021.002500", "114023.002500", "114025.002500", "114027.002500", "114029.002500", "114031.002500", "114033.002500", "114035.002500", "114037.002500", "114039.002500", "114041.002500", "114043.002500", "114045.002500", "114047.002500", "114049.002500", "114051.002500", "114053.002500", "114055.002500", "114057.002500", "114059.002500", "114101.002500", "114103.002500", "114105.002500", "114107.002500", "114109.002500", "114111.002500", "114113.002500", "114115.002500", "114117.002500", "114119.002500", "114121.002500", "114123.002500", "114125.002500", "114127.002500", "114129.002500", "114131.002500", "114133.002500", "114135.002500", "114137.002500", "114139.002500", "114141.002500", "114143.002500", "114145.002500", "114147.002500", "114149.002500", "114151.002500", "114153.002500", "114155.002500", "114157.002500", "114159.002500", "114201.002500", "114203.002500", "114205.002500", "114207.002500", "114209.002500", "114211.002500", "114213.002500", "114215.002500", "114217.002500", "114219.002500", "114221.002500", "114223.002500", "114225.002500", "114227.002500", "114229.002500", "114231.002500", "114233.002500", "114235.002500", "114237.002500", "114239.002500", "114241.002500", "114243.002500", "114245.002500", "114247.002500", "114249.002500", "114251.002500", "114253.002500", "114255.002500", "114257.002500", "114259.002500", "114301.002500", "114303.002500", "114305.002500", "114307.002500", "114309.002500", "114311.002500", "114313.002500", "114315.002500", "114317.002500", "114319.002500", "114321.002500", "114323.002500", "114325.002500", "114327.002500", "114329.002500", "114331.002500", "114333.002500", "114335.002500", "114337.002500", "114339.002500", "114341.002500", "114343.002500", "114345.002500", "114347.002500", "114349.002500", "114351.002500", "114353.002500", "114355.002500", "114357.002500", "114359.002500", "114401.002500", "114403.002500", "114405.002500", "114407.002500", "114409.002500", "114411.002500", "114413.002500", "114415.002500", "114417.002500", "114419.002500", "114421.002500", "114423.002500", "114425.002500", "114427.002500", "114429.002500", "114431.002500", "114433.002500", "114435.002500", "114437.002500", "114439.002500", "114441.002500", "114443.002500", "114445.002500", "114447.002500", "114449.002500", "114451.002500", "114453.002500", "114455.002500", "114457.002500", "114459.002500", "114501.002500", "114503.002500", "114505.002500", "114507.002500", "114509.002500", "114511.002500", "114513.002500", "114515.002500", "114517.002500", "114519.002500"],
      "ContentTime": ["112949.909000", "112949.912000", "112949.915000", "112949.918000", "112949.920000", "112949.929000", "112949.937000", "112949.940000", "112949.942000", "112949.945000", "112949.947000", "112949.950000", "112949.953000", "112949.955000", "112949.958000", "112949.960000", "112949.963000", "112949.973000", "112949.975000", "112949.978000", "112949.980000", "112949.983000", "112949.985000", "112949.988000", "113029.870000", "113029.873000", "113029.876000", "113029.878000", "113029.881000", "113029.883000", "113029.886000", "113029.888000", "113029.891000", "113029.894000", "113029.896000", "113029.899000", "113029.901000", "113029.904000", "113029.906000", "113029.909000", "113029.911000", "113029.914000", "113029.916000", "113029.919000", "113109.870000", "113109.880000", "113109.882000", "113109.885000", "113109.887000", "113109.890000", "113109.892000", "113109.895000", "113109.897000", "113109.900000", "113109.902000", "113109.905000", "113109.907000", "113109.910000", "113109.912000", "113109.915000", "113109.917000", "113109.920000", "113109.922000", "113109.925000", "113149.870000", "113149.873000", "113149.876000", "113149.878000", "113149.881000", "113149.884000", "113149.886000", "113149.889000", "113149.892000", "113149.894000", "113149.897000", "113149.899000", "113149.902000", "113149.904000", "113149.907000", "113149.909000", "113149.912000", "113149.915000", "113149.917000", "113149.920000", "113229.870000", "113229.873000", "113229.876000", "113229.878000", "113229.881000", "113229.883000", "113229.886000", "113229.888000", "113229.891000", "113229.893000", "113229.896000", "113229.898000", "113229.901000", "113229.903000", "113229.906000", "113229.908000", "113229.911000", "113229.913000", "113229.916000", "113229.918000", "113309.870000", "113309.873000", "113309.876000", "113309.878000", "113309.881000", "113309.883000", "113309.886000", "113309.888000", "113309.891000", "113309.893000", "113309.896000", "113309.898000", "113309.901000", "113309.903000", "113309.906000", "113309.908000", "113309.911000", "113309.913000", "113309.916000", "113309.919000", "113349.871000", "113349.873000", "113349.876000", "113349.878000", "113349.881000", "113349.883000", "113349.886000", "113349.889000", "113349.891000", "113349.894000", "113349.896000", "113349.899000", "113349.901000", "113349.904000", "113349.906000", "113349.909000", "113349.911000", "113349.914000", "113349.916000", "113349.919000", "113429.870000", "113429.873000", "113429.876000", "113429.878000", "113429.881000", "113429.883000", "113429.886000", "113429.889000", "113429.891000", "113429.894000", "113429.896000", "113429.899000", "113429.901000", "113429.904000", "113429.906000", "113429.909000", "113429.911000", "113429.914000", "113429.916000", "113429.919000", "113509.871000", "113509.873000", "113509.876000", "113509.878000", "113509.881000", "113509.883000", "113509.886000", "113509.889000", "113509.891000", "113509.894000", "113509.896000", "113509.899000", "113509.901000", "113509.904000", "113509.906000", "113509.909000", "113509.911000", "113509.914000", "113509.917000", "113509.919000", "113549.870000", "113549.873000", "113549.876000", "113549.878000", "113549.881000", "113549.883000", "113549.886000", "113549.888000", "113549.891000", "113549.893000", "113549.896000", "113549.898000", "113549.901000", "113549.903000", "113549.906000", "113549.908000", "113549.911000", "113549.913000", "113549.916000", "113549.918000", "113629.871000", "113629.893000", "113629.895000", "113629.898000", "113629.900000", "113629.903000", "113629.905000", "113629.908000", "113629.910000", "113629.913000", "113629.915000", "113629.918000", "113629.920000", "113629.923000", "113629.925000", "113629.928000", "113629.931000", "113629.933000", "113629.936000", "113629.938000", "113709.871000", "113709.873000", "113709.876000", "113709.878000", "113709.881000", "113709.884000", "113709.886000", "113709.889000", "113709.891000", "113709.894000", "113709.896000", "113709.899000", "113709.901000", "113709.904000", "113709.906000", "113709.909000", "113709.912000", "113709.914000", "113709.917000", "113709.919000", "113749.871000", "113749.873000", "113749.876000", "113749.878000", "113749.881000", "113749.883000", "113749.886000", "113749.889000", "113749.891000", "113749.894000", "113749.896000", "113749.899000", "113749.901000", "113749.904000", "113749.906000", "113749.909000", "113749.911000", "113749.914000", "113749.916000", "113749.919000", "113829.871000", "113829.873000", "113829.876000", "113829.878000", "113829.881000", "113829.883000", "113829.886000", "113829.888000", "113829.891000", "113829.893000", "113829.896000", "113829.898000", "113829.901000", "113829.904000", "113829.906000", "113829.909000", "113829.911000", "113829.914000", "113829.916000", "113829.919000", "113909.871000", "113909.873000", "113909.876000", "113909.879000", "113909.881000", "113909.884000", "113909.886000", "113909.889000", "113909.891000", "113909.894000", "113909.897000", "113909.899000", "113909.902000", "113909.904000", "113909.907000", "113909.909000", "113909.912000", "113909.914000", "113909.917000", "113909.919000", "113949.870000", "113949.873000", "113949.876000", "113949.878000", "113949.881000", "113949.884000", "113949.886000", "113949.889000", "113949.891000", "113949.894000", "113949.896000", "113949.899000", "113949.902000", "113949.904000", "113949.907000", "113949.910000", "113949.913000", "113949.915000", "113949.918000", "113949.920000", "114029.870000", "114029.873000", "114029.876000", "114029.878000", "114029.881000", "114029.883000", "114029.886000", "114029.889000", "114029.891000", "114029.894000", "114029.896000", "114029.899000", "114029.901000", "114029.904000", "114029.906000", "114029.909000", "114029.911000", "114029.914000", "114029.916000", "114029.919000", "114109.870000", "114109.873000", "114109.876000", "114109.878000", "114109.881000", "114109.883000", "114109.887000", "114109.889000", "114109.892000", "114109.894000", "114109.897000", "114109.899000", "114109.902000", "114109.915000", "114109.918000", "114109.920000", "114109.923000", "114109.925000", "114109.928000", "114109.930000", "114149.871000", "114149.873000", "114149.876000", "114149.878000", "114149.881000", "114149.884000", "114149.886000", "114149.889000", "114149.891000", "114149.894000", "114149.896000", "114149.899000", "114149.901000", "114149.904000", "114149.906000", "114149.909000", "114149.911000", "114149.914000", "114149.916000", "114149.919000", "114229.871000", "114229.874000", "114229.876000", "114229.879000", "114229.881000", "114229.884000", "114229.886000", "114229.889000", "114229.891000", "114229.894000", "114229.896000", "114229.899000", "114229.901000", "114229.904000", "114229.907000", "114229.909000", "114229.912000", "114229.914000", "114229.917000", "114229.919000", "114309.870000", "114309.873000", "114309.876000", "114309.878000", "114309.881000", "114309.883000", "114309.886000", "114309.888000", "114309.891000", "114309.893000", "114309.896000", "114309.899000", "114309.901000", "114309.904000", "114309.906000", "114309.909000", "114309.911000", "114309.914000", "114309.917000", "114309.919000", "114349.871000", "114349.873000", "114349.876000", "114349.879000", "114349.881000", "114349.884000", "114349.886000", "114349.889000", "114349.891000", "114349.894000", "114349.896000", "114349.899000", "114349.901000", "114349.904000", "114349.907000", "114349.909000", "114349.912000", "114349.914000", "114349.917000", "114349.919000", "114429.871000", "114429.873000", "114429.876000", "114429.878000", "114429.881000", "114429.883000", "114429.886000", "114429.889000", "114429.891000", "114429.894000", "114429.896000", "114429.899000", "114429.902000", "114429.904000", "114429.907000", "114429.909000", "114429.912000", "114429.914000", "114429.917000", "114429.919000", "114509.871000", "114509.873000", "114509.876000", "114509.878000", "114509.881000", "114509.884000", "114509.886000", "114509.889000", "114509.891000", "114509.894000", "114509.896000", "114509.899000", "114509.901000", "114509.904000", "114509.907000", "114509.909000", "114509.912000", "114509.914000", "114509.917000", "114509.919000", "114522.900000", "114522.903000", "114522.906000", "114522.908000", "114522.911000", "114522.913000"],
