{
  "AcquisitionMatrixPE": 96,
  "AcquisitionNumber": 1,
  "AcquisitionTime": "13:13:27.067500",
  "BandwidthPerPixelPhaseEncode": 20.425,
  "BaseResolution": 96,
  "BodyPartExamined": "BRAIN",
  "CoilCombinationMethod": "Sum of Squares",
  "ConsistencyInfo": "N4_VE11C_LATEST_20160120",
  "ConversionSoftware": "dcm2niix",
  "ConversionSoftwareVersion": "v1.0.20211006",
  "DerivedVendorReportedEchoSpacing": 0.000509996,
  "DeviceSerialNumber": "166054",
  "DwellTime": 2.3e-06,
  "EchoTime": 0.03,
  "EchoTrainLength": 96,
  "EffectiveEchoSpacing": 0.000509996,
  "FlipAngle": 75,
  "HeudiconvVersion": "0.11.3+d20220512",
  "ImageComments": "Unaliased MB2/PE2",
  "ImageOrientationPatientDICOM": [0.999951, 0.0059728, -0.00791679, -0.00820284, 0.946776, -0.321787],
  "ImageOrientationText": "Tra>Cor(-18.8)>Sag(-0.3)",
  "ImageType": [
    "ORIGINAL",
    "PRIMARY",
    "M",
    "MB",
    "ND",
    "MOSAIC"
],
  "ImagingFrequency": 123.26,
  "InPlanePhaseEncodingDirectionDICOM": "COL",
  "InstitutionAddress": "Street StreetNo,City,District,IL,ZIP",
  "InstitutionName": "Weizmann Institute",
  "InstitutionalDepartmentName": "Department",
  "MRAcquisitionType": "2D",
  "MagneticFieldStrength": 3,
  "Manufacturer": "Siemens",
  "ManufacturersModelName": "Prisma",
  "MatrixCoilMode": "SENSE",
  "Modality": "MR",
  "MultibandAccelerationFactor": 2,
  "PartialFourier": 1,
  "PatientPosition": "HFS",
  "PercentPhaseFOV": 100,
  "PercentSampling": 100,
  "PhaseEncodingDirection": "j-",
  "PhaseEncodingSteps": 96,
  "PhaseResolution": 1,
  "PixelBandwidth": 2265,
  "ProcedureStepDescription": "Weizmann^Sobel",
  "ProtocolName": "EPI_PSAP_iso2.5",
  "PulseSequenceDetails": "%CustomerSeq%\\cmrr_mbep2d_bold",
  "ReceiveCoilActiveElements": "HEA;HEP",
  "ReceiveCoilName": "Head_32",
  "ReconMatrixPE": 96,
  "RepetitionTime": 2,
  "SAR": 0.112883,
  "ScanOptions": "FS",
  "ScanningSequence": "EP",
  "SequenceName": "epfid2d1_96",
  "SequenceVariant": "SK\\SS",
  "SeriesDescription": "EPI_PSAP_iso2.5",
  "SeriesNumber": 16,
  "ShimSetting": [5914, -4033, -1909, 444, 159, -44, 77, 27],
  "SliceThickness": 2.5,
  "SliceTiming": [0, 0.92, 1.8375, 0.7775, 1.6975, 0.635, 1.555, 0.495, 1.415, 0.3525, 1.2725, 0.2125, 1.13, 0.07, 0.99, 1.91, 0.8475, 1.7675, 0.7075, 1.625, 0.565, 1.485, 0.425, 1.3425, 0.2825, 1.2025, 0.14, 1.06, 0, 0.92, 1.8375, 0.7775, 1.6975, 0.635, 1.555, 0.495, 1.415, 0.3525, 1.2725, 0.2125, 1.13, 0.07, 0.99, 1.91, 0.8475, 1.7675, 0.7075, 1.625, 0.565, 1.485, 0.425, 1.3425, 0.2825, 1.2025, 0.14, 1.06],
  "SoftwareVersions": "syngo MR E11",
  "SpacingBetweenSlices": 2.5,
  "StationName": "AWP166054",
  "TaskName": "PSAP",
  "TotalReadoutTime": 0.0484496,
  "TxRefAmp": 253.4,
  "VendorReportedEchoSpacing": 0.00051,
  "WipMemBlock": "9fc06dbe-a6c7-4255-b2c5-215f92f03bf9||Sequence: R016 ve11c/master r/e634e98; Dec 19 2017 11:00:25 by eja",
  "dcmmeta_affine": [
    [-2.4998769760131836, -0.020507093518972397, -0.013933639973402023, 119.89397430419922],
    [-0.014932012185454369, 2.366940975189209, -0.8045914173126221, -84.96745300292969],
    [-0.019791973754763603, 0.8044686317443848, 2.3669471740722656, -80.25392150878906],
    [0.0, 0.0, 0.0, 1.0]
],
  "dcmmeta_reorient_transform": [
    [0.0, -1.0, 0.0, 95.0],
    [1.0, 0.0, 0.0, 0.0],
    [0.0, 0.0, 1.0, 0.0],
    [0.0, 0.0, 0.0, 1.0]
],
  "dcmmeta_shape": [96, 96, 56, 490],
  "dcmmeta_slice_dim": 2,
  "dcmmeta_version": 0.6,
  "global": {
    "const": {
      "AcquisitionMatrix": [96, 0, 0, 96],
      "AngioFlag": "N",
      "BitsAllocated": 16,
      "BitsStored": 16,
      "BodyPartExamined": "BRAIN",
      "Columns": 768,
      "EchoNumbers": 1,
      "EchoTime": 30.0,
      "EchoTrainLength": 96,
      "FlipAngle": 75.0,
      "HighBit": 15,
      "ImageOrientationPatient": [0.99995082381237, 0.00597280475665, -0.0079167897721, -0.008202837538, 0.94677640062645, -0.3217874464195],
      "ImagePositionPatient": [-951.01411211243, -940.20127368205, 273.1221534748],
      "ImageType": [
        "ORIGINAL",
        "PRIMARY",
        "M",
        "MB",
        "ND",
        "MOSAIC"
],
      "ImagedNucleus": "1H",
      "ImagingFrequency": 123.260159,
      "InPlanePhaseEncodingDirection": "COL",
      "MRAcquisitionType": "2D",
      "MagneticFieldStrength": 3.0,
      "Manufacturer": "SIEMENS",
      "ManufacturerModelName": "Prisma",
      "Modality": "MR",
      "NumberOfAverages": 1.0,
      "NumberOfPhaseEncodingSteps": 96,
      "PercentPhaseFieldOfView": 100.0,
      "PercentSampling": 100.0,
      "PerformedProcedureStepStartTime": "123150.306000",
      "PhotometricInterpretation": "MONOCHROME2",
      "PixelBandwidth": 2265.0,
      "PixelRepresentation": 0,
      "PixelSpacing": [2.5, 2.5],
      "ProtocolName": "EPI_PSAP_iso2.5",
      "RepetitionTime": 2000.0,
      "Rows": 768,
      "SAR": 0.11288347351656,
      "SamplesPerPixel": 1,
      "ScanOptions": "FS",
      "ScanningSequence": "EP",
      "SequenceName": "epfid2d1_96",
      "SequenceVariant": [
        "SK",
        "SS"
],
      "SeriesDescription": "EPI_PSAP_iso2.5",
      "SeriesNumber": 16,
      "SeriesTime": "131424.107000",
      "SliceLocation": -49.305306733902,
      "SliceThickness": 2.5,
      "SmallestImagePixelValue": 0,
      "SoftwareVersions": "syngo MR E11",
      "SpacingBetweenSlices": 2.5000000030876,
      "SpecificCharacterSet": "ISO_IR 100",
      "StudyID": "1",
      "StudyTime": "123150.210000",
      "TransmitCoilName": "Body",
      "VariableFlipAngleFlag": "N",
      "WindowCenterWidthExplanation": "Algo1",
      "dBdt": 0.0},
    "slices": {}
  },
  "time": {
    "samples": {
      "AcquisitionNumber": [1, 2, 3, 4, 5, 6, 7, 8, 9, 10, 11, 12, 13, 14, 15, 16, 17, 18, 19, 20, 21, 22, 23, 24, 25, 26, 27, 28, 29, 30, 31, 32, 33, 34, 35, 36, 37, 38, 39, 40, 41, 42, 43, 44, 45, 46, 47, 48, 49, 50, 51, 52, 53, 54, 55, 56, 57, 58, 59, 60, 61, 62, 63, 64, 65, 66, 67, 68, 69, 70, 71, 72, 73, 74, 75, 76, 77, 78, 79, 80, 81, 82, 83, 84, 85, 86, 87, 88, 89, 90, 91, 92, 93, 94, 95, 96, 97, 98, 99, 100, 101, 102, 103, 104, 105, 106, 107, 108, 109, 110, 111, 112, 113, 114, 115, 116, 117, 118, 119, 120, 121, 122, 123, 124, 125, 126, 127, 128, 129, 130, 131, 132, 133, 134, 135, 136, 137, 138, 139, 140, 141, 142, 143, 144, 145, 146, 147, 148, 149, 150, 151, 152, 153, 154, 155, 156, 157, 158, 159, 160, 161, 162, 163, 164, 165, 166, 167, 168, 169, 170, 171, 172, 173, 174, 175, 176, 177, 178, 179, 180, 181, 182, 183, 184, 185, 186, 187, 188, 189, 190, 191, 192, 193, 194, 195, 196, 197, 198, 199, 200, 201, 202, 203, 204, 205, 206, 207, 208, 209, 210, 211, 212, 213, 214, 215, 216, 217, 218, 219, 220, 221, 222, 223, 224, 225, 226, 227, 228, 229, 230, 231, 232, 233, 234, 235, 236, 237, 238, 239, 240, 241, 242, 243, 244, 245, 246, 247, 248, 249, 250, 251, 252, 253, 254, 255, 256, 257, 258, 259, 260, 261, 262, 263, 264, 265, 266, 267, 268, 269, 270, 271, 272, 273, 274, 275, 276, 277, 278, 279, 280, 281, 282, 283, 284, 285, 286, 287, 288, 289, 290, 291, 292, 293, 294, 295, 296, 297, 298, 299, 300, 301, 302, 303, 304, 305, 306, 307, 308, 309, 310, 311, 312, 313, 314, 315, 316, 317, 318, 319, 320, 321, 322, 323, 324, 325, 326, 327, 328, 329, 330, 331, 332, 333, 334, 335, 336, 337, 338, 339, 340, 341, 342, 343, 344, 345, 346, 347, 348, 349, 350, 351, 352, 353, 354, 355, 356, 357, 358, 359, 360, 361, 362, 363, 364, 365, 366, 367, 368, 369, 370, 371, 372, 373, 374, 375, 376, 377, 378, 379, 380, 381, 382, 383, 384, 385, 386, 387, 388, 389, 390, 391, 392, 393, 394, 395, 396, 397, 398, 399, 400, 401, 402, 403, 404, 405, 406, 407, 408, 409, 410, 411, 412, 413, 414, 415, 416, 417, 418, 419, 420, 421, 422, 423, 424, 425, 426, 427, 428, 429, 430, 431, 432, 433, 434, 435, 436, 437, 438, 439, 440, 441, 442, 443, 444, 445, 446, 447, 448, 449, 450, 451, 452, 453, 454, 455, 456, 457, 458, 459, 460, 461, 462, 463, 464, 465, 466, 467, 468, 469, 470, 471, 472, 473, 474, 475, 476, 477, 478, 479, 480, 481, 482, 483, 484, 485, 486, 487, 488, 489, 490],
      "AcquisitionTime": ["131327.067500", "131329.067500", "131331.067500", "131333.067500", "131335.067500", "131337.067500", "131339.067500", "131341.067500", "131343.067500", "131345.067500", "131347.067500", "131349.067500", "131351.067500", "131353.067500", "131355.067500", "131357.067500", "131359.067500", "131401.067500", "131403.067500", "131405.067500", "131407.067500", "131409.067500", "131411.067500", "131413.067500", "131415.067500", "131417.067500", "131419.067500", "131421.067500", "131423.067500", "131425.067500", "131427.067500", "131429.067500", "131431.067500", "131433.067500", "131435.067500", "131437.067500", "131439.067500", "131441.067500", "131443.067500", "131445.067500", "131447.067500", "131449.067500", "131451.067500", "131453.067500", "131455.067500", "131457.067500", "131459.067500", "131501.067500", "131503.067500", "131505.067500", "131507.067500", "131509.067500", "131511.067500", "131513.067500", "131515.067500", "131517.067500", "131519.067500", "131521.067500", "131523.067500", "131525.067500", "131527.067500", "131529.067500", "131531.067500", "131533.067500", "131535.067500", "131537.067500", "131539.067500", "131541.067500", "131543.067500", "131545.067500", "131547.067500", "131549.067500", "131551.067500", "131553.067500", "131555.067500", "131557.067500", "131559.067500", "131601.067500", "131603.067500", "131605.067500", "131607.067500", "131609.067500", "131611.067500", "131613.067500", "131615.067500", "131617.067500", "131619.067500", "131621.067500", "131623.067500", "131625.067500", "131627.067500", "131629.067500", "131631.067500", "131633.067500", "131635.067500", "131637.067500", "131639.067500", "131641.067500", "131643.067500", "131645.067500", "131647.067500", "131649.067500", "131651.067500", "131653.067500", "131655.067500", "131657.067500", "131659.067500", "131701.067500", "131703.067500", "131705.067500", "131707.067500", "131709.067500", "131711.067500", "131713.067500", "131715.067500", "131717.067500", "131719.067500", "131721.067500", "131723.067500", "131725.067500", "131727.067500", "131729.067500", "131731.067500", "131733.067500", "131735.067500", "131737.067500", "131739.067500", "131741.067500", "131743.067500", "131745.067500", "131747.067500", "131749.067500", "131751.067500", "131753.067500", "131755.067500", "131757.067500", "131759.067500", "131801.067500", "131803.067500", "131805.067500", "131807.067500", "131809.067500", "131811.067500", "131813.067500", "131815.067500", "131817.067500", "131819.067500", "131821.067500", "131823.067500", "131825.067500", "131827.067500", "131829.067500", "131831.067500", "131833.067500", "131835.067500", "131837.067500", "131839.067500", "131841.067500", "131843.067500", "131845.067500", "131847.067500", "131849.067500", "131851.067500", "131853.067500", "131855.067500", "131857.067500", "131859.067500", "131901.067500", "131903.067500", "131905.067500", "131907.067500", "131909.067500", "131911.067500", "131913.067500", "131915.067500", "131917.067500", "131919.067500", "131921.067500", "131923.067500", "131925.067500", "131927.067500", "131929.067500", "131931.067500", "131933.067500", "131935.067500", "131937.067500", "131939.067500", "131941.067500", "131943.067500", "131945.067500", "131947.067500", "131949.067500", "131951.067500", "131953.067500", "131955.067500", "131957.067500", "131959.067500", "132001.067500", "132003.067500", "132005.067500", "132007.067500", "132009.067500", "132011.067500", "132013.067500", "132015.067500", "132017.067500", "132019.067500", "132021.067500", "132023.067500", "132025.067500", "132027.067500", "132029.067500", "132031.067500", "132033.067500", "132035.067500", "132037.067500", "132039.067500", "132041.067500", "132043.067500", "132045.067500", "132047.067500", "132049.067500", "132051.067500", "132053.067500", "132055.067500", "132057.067500", "132059.067500", "132101.067500", "132103.067500", "132105.067500", "132107.067500", "132109.067500", "132111.067500", "132113.067500", "132115.067500", "132117.067500", "132119.067500", "132121.067500", "132123.067500", "132125.067500", "132127.067500", "132129.067500", "132131.067500", "132133.067500", "132135.067500", "132137.067500", "132139.067500", "132141.067500", "132143.067500", "132145.067500", "132147.067500", "132149.067500", "132151.067500", "132153.067500", "132155.067500", "132157.067500", "132159.067500", "132201.067500", "132203.067500", "132205.067500", "132207.067500", "132209.067500", "132211.067500", "132213.067500", "132215.067500", "132217.067500", "132219.067500", "132221.067500", "132223.067500", "132225.067500", "132227.067500", "132229.067500", "132231.067500", "132233.067500", "132235.067500", "132237.067500", "132239.067500", "132241.067500", "132243.067500", "132245.067500", "132247.067500", "132249.067500", "132251.067500", "132253.067500", "132255.067500", "132257.067500", "132259.067500", "132301.067500", "132303.067500", "132305.067500", "132307.067500", "132309.067500", "132311.067500", "132313.067500", "132315.067500", "132317.067500", "132319.067500", "132321.067500", "132323.067500", "132325.067500", "132327.067500", "132329.067500", "132331.067500", "132333.067500", "132335.067500", "132337.067500", "132339.067500", "132341.067500", "132343.067500", "132345.067500", "132347.067500", "132349.067500", "132351.067500", "132353.067500", "132355.067500", "132357.067500", "132359.067500", "132401.067500", "132403.067500", "132405.067500", "132407.067500", "132409.067500", "132411.067500", "132413.067500", "132415.067500", "132417.067500", "132419.067500", "132421.067500", "132423.067500", "132425.067500", "132427.067500", "132429.067500", "132431.067500", "132433.067500", "132435.067500", "132437.067500", "132439.067500", "132441.067500", "132443.067500", "132445.067500", "132447.067500", "132449.067500", "132451.067500", "132453.067500", "132455.067500", "132457.067500", "132459.067500", "132501.067500", "132503.067500", "132505.067500", "132507.067500", "132509.067500", "132511.067500", "132513.067500", "132515.067500", "132517.067500", "132519.067500", "132521.067500", "132523.067500", "132525.067500", "132527.067500", "132529.067500", "132531.067500", "132533.067500", "132535.067500", "132537.067500", "132539.067500", "132541.067500", "132543.067500", "132545.067500", "132547.067500", "132549.067500", "132551.067500", "132553.067500", "132555.067500", "132557.067500", "132559.067500", "132601.067500", "132603.067500", "132605.067500", "132607.067500", "132609.067500", "132611.067500", "132613.067500", "132615.067500", "132617.067500", "132619.067500", "132621.067500", "132623.067500", "132625.067500", "132627.067500", "132629.067500", "132631.067500", "132633.067500", "132635.067500", "132637.067500", "132639.067500", "132641.067500", "132643.067500", "132645.067500", "132647.067500", "132649.067500", "132651.067500", "132653.067500", "132655.067500", "132657.067500", "132659.067500", "132701.067500", "132703.067500", "132705.067500", "132707.067500", "132709.067500", "132711.067500", "132713.067500", "132715.067500", "132717.067500", "132719.067500", "132721.067500", "132723.067500", "132725.067500", "132727.067500", "132729.067500", "132731.067500", "132733.067500", "132735.067500", "132737.067500", "132739.067500", "132741.067500", "132743.067500", "132745.067500", "132747.067500", "132749.067500", "132751.067500", "132753.067500", "132755.067500", "132757.067500", "132759.067500", "132801.067500", "132803.067500", "132805.067500", "132807.067500", "132809.067500", "132811.067500", "132813.067500", "132815.067500", "132817.067500", "132819.067500", "132821.067500", "132823.067500", "132825.067500", "132827.067500", "132829.067500", "132831.067500", "132833.067500", "132835.067500", "132837.067500", "132839.067500", "132841.067500", "132843.067500", "132845.067500", "132847.067500", "132849.067500", "132851.067500", "132853.067500", "132855.067500", "132857.067500", "132859.067500", "132901.067500", "132903.067500", "132905.067500", "132907.067500", "132909.067500", "132911.067500", "132913.067500", "132915.067500", "132917.067500", "132919.067500", "132921.067500", "132923.067500", "132925.067500", "132927.067500", "132929.067500", "132931.067500", "132933.067500", "132935.067500", "132937.067500", "132939.067500", "132941.067500", "132943.067500", "132945.067500"],
      "ContentTime": ["131424.109000", "131424.112000", "131424.117000", "131424.119000", "131424.122000", "131424.125000", "131424.128000", "131424.130000", "131424.134000", "131424.137000", "131424.140000", "131424.142000", "131424.145000", "131424.147000", "131424.152000", "131424.155000", "131424.157000", "131424.160000", "131424.163000", "131424.165000", "131424.168000", "131424.170000", "131424.173000", "131424.175000", "131424.178000", "131424.181000", "131424.183000", "131504.064000", "131504.066000", "131504.074000", "131504.077000", "131504.080000", "131504.082000", "131504.085000", "131504.087000", "131504.090000", "131504.092000", "131504.095000", "131504.097000", "131504.100000", "131504.102000", "131504.105000", "131504.108000", "131504.110000", "131504.113000", "131504.115000", "131504.118000", "131544.063000", "131544.066000", "131544.069000", "131544.071000", "131544.074000", "131544.076000", "131544.079000", "131544.082000", "131544.085000", "131544.098000", "131544.101000", "131544.103000", "131544.106000", "131544.109000", "131544.111000", "131544.114000", "131544.117000", "131544.119000", "131544.122000", "131544.124000", "131624.064000", "131624.066000", "131624.069000", "131624.071000", "131624.074000", "131624.077000", "131624.079000", "131624.082000", "131624.085000", "131624.092000", "131624.094000", "131624.097000", "131624.100000", "131624.102000", "131624.105000", "131624.107000", "131624.110000", "131624.113000", "131624.116000", "131624.119000", "131704.063000", "131704.066000", "131704.069000", "131704.071000", "131704.074000", "131704.077000", "131704.079000", "131704.082000", "131704.084000", "131704.087000", "131704.090000", "131704.092000", "131704.095000", "131704.097000", "131704.100000", "131704.102000", "131704.105000", "131704.107000", "131704.110000", "131704.113000", "131744.063000", "131744.066000", "131744.069000", "131744.071000", "131744.074000", "131744.076000", "131744.079000", "131744.081000", "131744.084000", "131744.086000", "131744.089000", "131744.091000", "131744.094000", "131744.096000", "131744.099000", "131744.101000", "131744.104000", "131744.107000", "131744.109000", "131744.112000", "131824.063000", "131824.066000", "131824.069000", "131824.071000", "131824.074000", "131824.077000", "131824.079000", "131824.082000", "131824.084000", "131824.087000", "131824.090000", "131824.092000", "131824.095000", "131824.097000", "131824.100000", "131824.102000", "131824.105000", "131824.107000", "131824.110000", "131824.113000", "131904.063000", "131904.066000", "131904.069000", "131904.071000", "131904.074000", "131904.076000", "131904.079000", "131904.081000", "131904.084000", "131904.086000", "131904.089000", "131904.092000", "131904.094000", "131904.097000", "131904.099000", "131904.102000", "131904.104000", "131904.107000", "131904.109000", "131904.112000", "131944.064000", "131944.066000", "131944.069000", "131944.072000", "131944.074000", "131944.077000", "131944.080000", "131944.082000", "131944.085000", "131944.087000", "131944.090000", "131944.092000", "131944.095000", "131944.097000", "131944.100000", "131944.103000", "131944.105000", "131944.108000", "131944.110000", "131944.113000", "132024.064000", "132024.066000", "132024.069000", "132024.071000", "132024.074000", "132024.077000", "132024.079000", "132024.082000", "132024.085000", "132024.087000", "132024.090000", "132024.092000", "132024.095000", "132024.098000", "132024.100000", "132024.103000", "132024.105000", "132024.108000", "132024.110000", "132024.113000", "132104.063000", "132104.066000", "132104.069000", "132104.071000", "132104.074000", "132104.077000", "132104.079000", "132104.082000", "132104.085000", "132104.087000", "132104.090000", "132104.092000", "132104.095000", "132104.098000", "132104.100000", "132104.103000", "132104.105000", "132104.108000", "132104.111000", "132104.114000", "132144.064000", "132144.066000", "132144.069000", "132144.071000", "132144.074000", "132144.077000", "132144.080000", "132144.083000", "132144.086000", "132144.088000", "132144.091000", "132144.093000", "132144.096000", "132144.099000", "132144.101000", "132144.104000", "132144.106000", "132144.109000", "132144.111000", "132144.114000", "132224.064000", "132224.067000", "132224.069000", "132224.072000", "132224.074000", "132224.078000", "132224.081000", "132224.083000", "132224.086000", "132224.088000", "132224.091000", "132224.094000", "132224.097000", "132224.100000", "132224.112000", "132224.115000", "132224.117000", "132224.120000", "132224.122000", "132224.125000", "132304.064000", "132304.067000", "132304.069000", "132304.072000", "132304.075000", "132304.077000", "132304.080000", "132304.083000", "132304.085000", "132304.088000", "132304.090000", "132304.093000", "132304.096000", "132304.098000", "132304.101000", "132304.103000", "132304.106000", "132304.109000", "132304.111000", "132304.114000", "132344.063000", "132344.066000", "132344.069000", "132344.071000", "132344.074000", "132344.077000", "132344.080000", "132344.082000", "132344.085000", "132344.087000", "132344.090000", "132344.093000", "132344.095000", "132344.098000", "132344.100000", "132344.103000", "132344.106000", "132344.108000", "132344.111000", "132344.113000", "132424.064000", "132424.066000", "132424.069000", "132424.071000", "132424.074000", "132424.077000", "132424.079000", "132424.082000", "132424.084000", "132424.087000", "132424.090000", "132424.092000", "132424.095000", "132424.097000", "132424.100000", "132424.103000", "132424.105000", "132424.108000", "132424.110000", "132424.113000", "132504.064000", "132504.067000", "132504.069000", "132504.072000", "132504.074000", "132504.077000", "132504.089000", "132504.092000", "132504.094000", "132504.097000", "132504.100000", "132504.102000", "132504.105000", "132504.107000", "132504.118000", "132504.121000", "132504.124000", "132504.127000", "132504.131000", "132504.134000", "132544.063000", "132544.066000", "132544.069000", "132544.071000", "132544.074000", "132544.076000", "132544.079000", "132544.082000", "132544.084000", "132544.087000", "132544.089000", "132544.092000", "132544.094000", "132544.097000", "132544.099000", "132544.102000", "132544.105000", "132544.107000", "132544.110000", "132544.113000", "132624.063000", "132624.066000", "132624.068000", "132624.071000", "132624.073000", "132624.076000", "132624.079000", "132624.081000", "132624.084000", "132624.086000", "132624.089000", "132624.091000", "132624.094000", "132624.096000", "132624.099000", "132624.101000", "132624.104000", "132624.107000", "132624.109000", "132624.112000", "132704.063000", "132704.066000", "132704.069000", "132704.071000", "132704.074000", "132704.077000", "132704.079000", "132704.082000", "132704.084000", "132704.087000", "132704.090000", "132704.092000", "132704.095000", "132704.097000", "132704.100000", "132704.103000", "132704.105000", "132704.108000", "132704.110000", "132704.113000", "132744.064000", "132744.066000", "132744.069000", "132744.071000", "132744.074000", "132744.077000", "132744.079000", "132744.082000", "132744.085000", "132744.088000", "132744.090000", "132744.093000", "132744.096000", "132744.098000", "132744.101000", "132744.103000", "132744.106000", "132744.108000", "132744.111000", "132744.113000", "132824.064000", "132824.066000", "132824.069000", "132824.071000", "132824.074000", "132824.077000", "132824.079000", "132824.082000", "132824.085000", "132824.087000", "132824.090000", "132824.092000", "132824.095000", "132824.109000", "132824.111000", "132824.114000", "132824.116000", "132824.119000", "132824.122000", "132824.147000", "132904.064000", "132904.067000", "132904.069000", "132904.072000", "132904.074000", "132904.077000", "132904.080000", "132904.082000", "132904.085000", "132904.088000", "132904.090000", "132904.093000", "132904.095000", "132904.098000", "132904.100000", "132904.103000", "132904.106000", "132904.108000", "132904.111000", "132904.114000", "132944.064000", "132944.066000", "132944.069000", "132944.071000", "132944.075000", "132944.078000", "132944.080000", "132944.083000", "132944.086000", "132944.088000", "132944.091000", "132944.093000", "132944.096000", "132944.098000", "132944.101000", "132944.104000", "132944.106000", "132944.109000", "132944.111000", "132944.114000", "132949.246000", "132949.249000", "132949.252000"],
