{
  "AcquisitionMatrixPE": 96,
  "AcquisitionNumber": 1,
  "AcquisitionTime": "13:18:49.282500",
  "BandwidthPerPixelPhaseEncode": 20.425,
  "BaseResolution": 96,
  "BodyPartExamined": "BRAIN",
  "CoilCombinationMethod": "Sum of Squares",
  "ConsistencyInfo": "N4_VE11C_LATEST_20160120",
  "ConversionSoftware": "dcm2niix",
  "ConversionSoftwareVersion": "v1.0.20211006",
  "DerivedVendorReportedEchoSpacing": 0.000509996,
  "DeviceSerialNumber": "166054",
  "DwellTime": 2.3e-06,
  "EchoTime": 0.03,
  "EchoTrainLength": 96,
  "EffectiveEchoSpacing": 0.000509996,
  "FlipAngle": 75,
  "HeudiconvVersion": "0.11.3+d20220512",
  "ImageComments": "Unaliased MB2/PE2",
  "ImageOrientationPatientDICOM": [0.999474, -0.00101833, -0.0324009, -0.00889673, 0.952511, -0.304375],
  "ImageOrientationText": "Tra>Cor(-17.7)>Sag(-1.8)",
  "ImageType": [
    "ORIGINAL",
    "PRIMARY",
    "M",
    "MB",
    "ND",
    "MOSAIC"
],
  "ImagingFrequency": 123.26,
  "InPlanePhaseEncodingDirectionDICOM": "COL",
  "InstitutionAddress": "Street StreetNo,City,District,IL,ZIP",
  "InstitutionName": "Weizmann Institute",
  "InstitutionalDepartmentName": "Department",
  "MRAcquisitionType": "2D",
  "MagneticFieldStrength": 3,
  "Manufacturer": "Siemens",
  "ManufacturersModelName": "Prisma",
  "MatrixCoilMode": "SENSE",
  "Modality": "MR",
  "MultibandAccelerationFactor": 2,
  "PartialFourier": 1,
  "PatientPosition": "HFS",
  "PercentPhaseFOV": 100,
  "PercentSampling": 100,
  "PhaseEncodingDirection": "j-",
  "PhaseEncodingSteps": 96,
  "PhaseResolution": 1,
  "PixelBandwidth": 2265,
  "ProcedureStepDescription": "Weizmann^Sobel",
  "ProtocolName": "EPI_PSAP_iso2.5",
  "PulseSequenceDetails": "%CustomerSeq%\\cmrr_mbep2d_bold",
  "ReceiveCoilActiveElements": "HEA;HEP",
  "ReceiveCoilName": "Head_32",
  "ReconMatrixPE": 96,
  "RepetitionTime": 2,
  "SAR": 0.109802,
  "ScanOptions": "FS",
  "ScanningSequence": "EP",
  "SequenceName": "epfid2d1_96",
  "SequenceVariant": "SK\\SS",
  "SeriesDescription": "EPI_PSAP_iso2.5",
  "SeriesNumber": 6,
  "ShimSetting": [5905, -4038, -1933, 438, 146, -31, 62, 22],
  "SliceThickness": 2.5,
  "SliceTiming": [0, 0.9175, 1.8375, 0.7775, 1.695, 0.635, 1.555, 0.495, 1.4125, 0.3525, 1.2725, 0.21, 1.13, 0.07, 0.99, 1.9075, 0.8475, 1.7675, 0.705, 1.625, 0.565, 1.485, 0.4225, 1.3425, 0.2825, 1.2, 0.14, 1.06, 0, 0.9175, 1.8375, 0.7775, 1.695, 0.635, 1.555, 0.495, 1.4125, 0.3525, 1.2725, 0.21, 1.13, 0.07, 0.99, 1.9075, 0.8475, 1.7675, 0.705, 1.625, 0.565, 1.485, 0.4225, 1.3425, 0.2825, 1.2, 0.14, 1.06],
  "SoftwareVersions": "syngo MR E11",
  "SpacingBetweenSlices": 2.5,
  "StationName": "AWP166054",
  "TaskName": "PSAP",
  "TotalReadoutTime": 0.0484496,
  "TxRefAmp": 252.7,
  "VendorReportedEchoSpacing": 0.00051,
  "WipMemBlock": "d9c2901c-2bd4-4a8a-add1-a2ad43e6fff0||Sequence: R016 ve11c/master r/e634e98; Dec 19 2017 11:00:25 by eja",
  "dcmmeta_affine": [
    [-2.4986860752105713, -0.02224181592464447, -0.07793031632900238, 121.42037963867188],
    [0.0025458205491304398, 2.381276845932007, -0.761258602142334, -83.56829833984375],
    [-0.08100216835737228, 0.7609378695487976, 2.380002498626709, -89.75025939941406],
    [0.0, 0.0, 0.0, 1.0]
],
  "dcmmeta_reorient_transform": [
    [0.0, -1.0, 0.0, 95.0],
    [1.0, 0.0, 0.0, 0.0],
    [0.0, 0.0, 1.0, 0.0],
    [0.0, 0.0, 0.0, 1.0]
],
  "dcmmeta_shape": [96, 96, 56, 489],
  "dcmmeta_slice_dim": 2,
  "dcmmeta_version": 0.6,
  "global": {
    "const": {
      "AcquisitionMatrix": [96, 0, 0, 96],
      "AngioFlag": "N",
      "BitsAllocated": 16,
      "BitsStored": 16,
      "BodyPartExamined": "BRAIN",
      "Columns": 768,
      "EchoNumbers": 1,
      "EchoTime": 30.0,
      "EchoTrainLength": 96,
      "FlipAngle": 75.0,
      "HighBit": 15,
      "ImageOrientationPatient": [0.99947443526477, -0.0010183282027, -0.0324008681959, -0.0088967262586, 0.95251069252864, -0.3043751449782],
      "ImagePositionPatient": [-951.39268027132, -941.90657340892, 265.43068981027],
      "ImageType": [
        "ORIGINAL",
        "PRIMARY",
        "M",
        "MB",
        "ND",
        "MOSAIC"
],
      "ImagedNucleus": "1H",
      "ImagingFrequency": 123.259965,
      "InPlanePhaseEncodingDirection": "COL",
      "MRAcquisitionType": "2D",
      "MagneticFieldStrength": 3.0,
      "Manufacturer": "SIEMENS",
      "ManufacturerModelName": "Prisma",
      "Modality": "MR",
      "NumberOfAverages": 1.0,
      "NumberOfPhaseEncodingSteps": 96,
      "PercentPhaseFieldOfView": 100.0,
      "PercentSampling": 100.0,
      "PerformedProcedureStepStartTime": "123150.306000",
      "PhotometricInterpretation": "MONOCHROME2",
      "PixelBandwidth": 2265.0,
      "PixelRepresentation": 0,
      "PixelSpacing": [2.5, 2.5],
      "ProtocolName": "EPI_PSAP_iso2.5",
      "RepetitionTime": 2000.0,
      "Rows": 768,
      "SAR": 0.10980153830599,
      "SamplesPerPixel": 1,
      "ScanOptions": "FS",
      "ScanningSequence": "EP",
      "SequenceName": "epfid2d1_96",
      "SequenceVariant": [
        "SK",
        "SS"
],
      "SeriesDescription": "EPI_PSAP_iso2.5",
      "SeriesNumber": 6,
      "SeriesTime": "131944.093000",
      "SliceLocation": -63.780434105308,
      "SliceThickness": 2.5,
      "SmallestImagePixelValue": 0,
      "SoftwareVersions": "syngo MR E11",
      "SpacingBetweenSlices": 2.4999999598012,
      "SpecificCharacterSet": "ISO_IR 100",
      "StudyID": "1",
      "StudyTime": "123150.210000",
      "TransmitCoilName": "Body",
      "VariableFlipAngleFlag": "N",
      "dBdt": 0.0},
    "slices": {}
  },
  "time": {
    "samples": {
      "AcquisitionNumber": [1, 2, 3, 4, 5, 6, 7, 8, 9, 10, 11, 12, 13, 14, 15, 16, 17, 18, 19, 20, 21, 22, 23, 24, 25, 26, 27, 28, 29, 30, 31, 32, 33, 34, 35, 36, 37, 38, 39, 40, 41, 42, 43, 44, 45, 46, 47, 48, 49, 50, 51, 52, 53, 54, 55, 56, 57, 58, 59, 60, 61, 62, 63, 64, 65, 66, 67, 68, 69, 70, 71, 72, 73, 74, 75, 76, 77, 78, 79, 80, 81, 82, 83, 84, 85, 86, 87, 88, 89, 90, 91, 92, 93, 94, 95, 96, 97, 98, 99, 100, 101, 102, 103, 104, 105, 106, 107, 108, 109, 110, 111, 112, 113, 114, 115, 116, 117, 118, 119, 120, 121, 122, 123, 124, 125, 126, 127, 128, 129, 130, 131, 132, 133, 134, 135, 136, 137, 138, 139, 140, 141, 142, 143, 144, 145, 146, 147, 148, 149, 150, 151, 152, 153, 154, 155, 156, 157, 158, 159, 160, 161, 162, 163, 164, 165, 166, 167, 168, 169, 170, 171, 172, 173, 174, 175, 176, 177, 178, 179, 180, 181, 182, 183, 184, 185, 186, 187, 188, 189, 190, 191, 192, 193, 194, 195, 196, 197, 198, 199, 200, 201, 202, 203, 204, 205, 206, 207, 208, 209, 210, 211, 212, 213, 214, 215, 216, 217, 218, 219, 220, 221, 222, 223, 224, 225, 226, 227, 228, 229, 230, 231, 232, 233, 234, 235, 236, 237, 238, 239, 240, 241, 242, 243, 244, 245, 246, 247, 248, 249, 250, 251, 252, 253, 254, 255, 256, 257, 258, 259, 260, 261, 262, 263, 264, 265, 266, 267, 268, 269, 270, 271, 272, 273, 274, 275, 276, 277, 278, 279, 280, 281, 282, 283, 284, 285, 286, 287, 288, 289, 290, 291, 292, 293, 294, 295, 296, 297, 298, 299, 300, 301, 302, 303, 304, 305, 306, 307, 308, 309, 310, 311, 312, 313, 314, 315, 316, 317, 318, 319, 320, 321, 322, 323, 324, 325, 326, 327, 328, 329, 330, 331, 332, 333, 334, 335, 336, 337, 338, 339, 340, 341, 342, 343, 344, 345, 346, 347, 348, 349, 350, 351, 352, 353, 354, 355, 356, 357, 358, 359, 360, 361, 362, 363, 364, 365, 366, 367, 368, 369, 370, 371, 372, 373, 374, 375, 376, 377, 378, 379, 380, 381, 382, 383, 384, 385, 386, 387, 388, 389, 390, 391, 392, 393, 394, 395, 396, 397, 398, 399, 400, 401, 402, 403, 404, 405, 406, 407, 408, 409, 410, 411, 412, 413, 414, 415, 416, 417, 418, 419, 420, 421, 422, 423, 424, 425, 426, 427, 428, 429, 430, 431, 432, 433, 434, 435, 436, 437, 438, 439, 440, 441, 442, 443, 444, 445, 446, 447, 448, 449, 450, 451, 452, 453, 454, 455, 456, 457, 458, 459, 460, 461, 462, 463, 464, 465, 466, 467, 468, 469, 470, 471, 472, 473, 474, 475, 476, 477, 478, 479, 480, 481, 482, 483, 484, 485, 486, 487, 488, 489],
      "AcquisitionTime": ["131849.282500", "131851.282500", "131853.282500", "131855.282500", "131857.282500", "131859.282500", "131901.282500", "131903.282500", "131905.282500", "131907.282500", "131909.282500", "131911.282500", "131913.282500", "131915.282500", "131917.282500", "131919.282500", "131921.282500", "131923.282500", "131925.282500", "131927.282500", "131929.282500", "131931.282500", "131933.282500", "131935.282500", "131937.282500", "131939.282500", "131941.282500", "131943.282500", "131945.282500", "131947.282500", "131949.282500", "131951.282500", "131953.282500", "131955.282500", "131957.282500", "131959.282500", "132001.282500", "132003.282500", "132005.282500", "132007.282500", "132009.282500", "132011.282500", "132013.282500", "132015.282500", "132017.282500", "132019.282500", "132021.282500", "132023.282500", "132025.282500", "132027.282500", "132029.282500", "132031.282500", "132033.282500", "132035.282500", "132037.282500", "132039.282500", "132041.282500", "132043.282500", "132045.282500", "132047.282500", "132049.282500", "132051.282500", "132053.282500", "132055.282500", "132057.282500", "132059.282500", "132101.282500", "132103.282500", "132105.282500", "132107.282500", "132109.282500", "132111.282500", "132113.282500", "132115.282500", "132117.282500", "132119.282500", "132121.282500", "132123.282500", "132125.282500", "132127.282500", "132129.282500", "132131.282500", "132133.282500", "132135.282500", "132137.282500", "132139.282500", "132141.282500", "132143.282500", "132145.282500", "132147.282500", "132149.282500", "132151.282500", "132153.282500", "132155.282500", "132157.282500", "132159.282500", "132201.282500", "132203.282500", "132205.282500", "132207.282500", "132209.282500", "132211.282500", "132213.282500", "132215.282500", "132217.282500", "132219.282500", "132221.282500", "132223.282500", "132225.282500", "132227.282500", "132229.282500", "132231.282500", "132233.282500", "132235.282500", "132237.282500", "132239.282500", "132241.282500", "132243.282500", "132245.282500", "132247.282500", "132249.282500", "132251.282500", "132253.282500", "132255.282500", "132257.282500", "132259.282500", "132301.282500", "132303.282500", "132305.282500", "132307.282500", "132309.282500", "132311.282500", "132313.282500", "132315.282500", "132317.282500", "132319.282500", "132321.282500", "132323.282500", "132325.282500", "132327.282500", "132329.282500", "132331.282500", "132333.282500", "132335.282500", "132337.282500", "132339.282500", "132341.282500", "132343.282500", "132345.282500", "132347.282500", "132349.282500", "132351.282500", "132353.282500", "132355.282500", "132357.282500", "132359.282500", "132401.282500", "132403.282500", "132405.282500", "132407.282500", "132409.282500", "132411.282500", "132413.282500", "132415.282500", "132417.282500", "132419.282500", "132421.282500", "132423.282500", "132425.282500", "132427.282500", "132429.282500", "132431.282500", "132433.282500", "132435.282500", "132437.282500", "132439.282500", "132441.282500", "132443.282500", "132445.282500", "132447.282500", "132449.282500", "132451.282500", "132453.282500", "132455.282500", "132457.282500", "132459.282500", "132501.282500", "132503.282500", "132505.282500", "132507.282500", "132509.282500", "132511.282500", "132513.282500", "132515.282500", "132517.282500", "132519.282500", "132521.282500", "132523.282500", "132525.282500", "132527.282500", "132529.282500", "132531.282500", "132533.282500", "132535.282500", "132537.282500", "132539.282500", "132541.282500", "132543.282500", "132545.282500", "132547.282500", "132549.282500", "132551.282500", "132553.282500", "132555.282500", "132557.282500", "132559.282500", "132601.282500", "132603.282500", "132605.282500", "132607.282500", "132609.282500", "132611.282500", "132613.282500", "132615.282500", "132617.282500", "132619.282500", "132621.282500", "132623.282500", "132625.282500", "132627.282500", "132629.282500", "132631.282500", "132633.282500", "132635.282500", "132637.282500", "132639.282500", "132641.282500", "132643.282500", "132645.282500", "132647.282500", "132649.282500", "132651.282500", "132653.282500", "132655.282500", "132657.282500", "132659.282500", "132701.282500", "132703.282500", "132705.282500", "132707.282500", "132709.282500", "132711.282500", "132713.282500", "132715.282500", "132717.282500", "132719.282500", "132721.282500", "132723.282500", "132725.282500", "132727.282500", "132729.282500", "132731.282500", "132733.282500", "132735.282500", "132737.282500", "132739.282500", "132741.282500", "132743.282500", "132745.282500", "132747.282500", "132749.282500", "132751.282500", "132753.282500", "132755.282500", "132757.282500", "132759.282500", "132801.282500", "132803.282500", "132805.282500", "132807.282500", "132809.282500", "132811.282500", "132813.282500", "132815.282500", "132817.282500", "132819.282500", "132821.282500", "132823.282500", "132825.282500", "132827.282500", "132829.282500", "132831.282500", "132833.282500", "132835.282500", "132837.282500", "132839.282500", "132841.282500", "132843.282500", "132845.282500", "132847.282500", "132849.282500", "132851.282500", "132853.282500", "132855.282500", "132857.282500", "132859.282500", "132901.282500", "132903.282500", "132905.282500", "132907.282500", "132909.282500", "132911.282500", "132913.282500", "132915.282500", "132917.282500", "132919.282500", "132921.282500", "132923.282500", "132925.282500", "132927.282500", "132929.282500", "132931.282500", "132933.282500", "132935.282500", "132937.282500", "132939.282500", "132941.282500", "132943.282500", "132945.282500", "132947.282500", "132949.282500", "132951.282500", "132953.282500", "132955.282500", "132957.282500", "132959.282500", "133001.282500", "133003.282500", "133005.282500", "133007.282500", "133009.282500", "133011.282500", "133013.282500", "133015.282500", "133017.282500", "133019.282500", "133021.282500", "133023.282500", "133025.282500", "133027.282500", "133029.282500", "133031.282500", "133033.282500", "133035.282500", "133037.282500", "133039.282500", "133041.282500", "133043.282500", "133045.282500", "133047.282500", "133049.282500", "133051.282500", "133053.282500", "133055.282500", "133057.282500", "133059.282500", "133101.282500", "133103.282500", "133105.282500", "133107.282500", "133109.282500", "133111.282500", "133113.282500", "133115.282500", "133117.282500", "133119.282500", "133121.282500", "133123.282500", "133125.282500", "133127.282500", "133129.282500", "133131.282500", "133133.282500", "133135.282500", "133137.282500", "133139.282500", "133141.282500", "133143.282500", "133145.282500", "133147.282500", "133149.282500", "133151.282500", "133153.282500", "133155.282500", "133157.282500", "133159.282500", "133201.282500", "133203.282500", "133205.282500", "133207.282500", "133209.282500", "133211.282500", "133213.282500", "133215.282500", "133217.282500", "133219.282500", "133221.282500", "133223.282500", "133225.282500", "133227.282500", "133229.282500", "133231.282500", "133233.282500", "133235.282500", "133237.282500", "133239.282500", "133241.282500", "133243.282500", "133245.282500", "133247.282500", "133249.282500", "133251.282500", "133253.282500", "133255.282500", "133257.282500", "133259.282500", "133301.282500", "133303.282500", "133305.282500", "133307.282500", "133309.282500", "133311.282500", "133313.282500", "133315.282500", "133317.282500", "133319.282500", "133321.282500", "133323.282500", "133325.282500", "133327.282500", "133329.282500", "133331.282500", "133333.282500", "133335.282500", "133337.282500", "133339.282500", "133341.282500", "133343.282500", "133345.282500", "133347.282500", "133349.282500", "133351.282500", "133353.282500", "133355.282500", "133357.282500", "133359.282500", "133401.282500", "133403.282500", "133405.282500", "133407.282500", "133409.282500", "133411.282500", "133413.282500", "133415.282500", "133417.282500", "133419.282500", "133421.282500", "133423.282500", "133425.282500", "133427.282500", "133429.282500", "133431.282500", "133433.282500", "133435.282500", "133437.282500", "133439.282500", "133441.282500", "133443.282500", "133445.282500", "133447.282500", "133449.282500", "133451.282500", "133453.282500", "133455.282500", "133457.282500", "133459.282500", "133501.282500", "133503.282500", "133505.282500"],
      "ContentTime": ["131944.096000", "131944.099000", "131944.102000", "131944.104000", "131944.107000", "131944.109000", "131944.112000", "131944.115000", "131944.117000", "131944.119000", "131944.124000", "131944.126000", "131944.129000", "131944.132000", "131944.134000", "131944.137000", "131944.139000", "131944.142000", "131944.144000", "131944.147000", "131944.149000", "131944.152000", "131944.154000", "131944.157000", "131944.159000", "131944.162000", "131944.164000", "132024.063000", "132024.066000", "132024.069000", "132024.072000", "132024.074000", "132024.077000", "132024.079000", "132024.082000", "132024.085000", "132024.087000", "132024.090000", "132024.093000", "132024.095000", "132024.098000", "132024.103000", "132024.106000", "132024.108000", "132024.111000", "132024.113000", "132024.116000", "132104.063000", "132104.066000", "132104.069000", "132104.071000", "132104.074000", "132104.076000", "132104.079000", "132104.081000", "132104.086000", "132104.089000", "132104.092000", "132104.094000", "132104.097000", "132104.099000", "132104.102000", "132104.104000", "132104.110000", "132104.113000", "132104.115000", "132104.118000", "132144.063000", "132144.066000", "132144.069000", "132144.071000", "132144.074000", "132144.076000", "132144.079000", "132144.081000", "132144.084000", "132144.087000", "132144.089000", "132144.092000", "132144.094000", "132144.097000", "132144.099000", "132144.102000", "132144.104000", "132144.107000", "132144.110000", "132144.112000", "132224.063000", "132224.066000", "132224.069000", "132224.071000", "132224.074000", "132224.076000", "132224.079000", "132224.081000", "132224.084000", "132224.086000", "132224.089000", "132224.091000", "132224.094000", "132224.096000", "132224.099000", "132224.101000", "132224.104000", "132224.106000", "132224.109000", "132224.111000", "132304.063000", "132304.066000", "132304.070000", "132304.072000", "132304.075000", "132304.077000", "132304.080000", "132304.083000", "132304.085000", "132304.088000", "132304.091000", "132304.093000", "132304.096000", "132304.098000", "132304.101000", "132304.103000", "132304.106000", "132304.108000", "132304.111000", "132304.114000", "132344.062000", "132344.065000", "132344.068000", "132344.070000", "132344.073000", "132344.075000", "132344.078000", "132344.080000", "132344.083000", "132344.085000", "132344.088000", "132344.091000", "132344.093000", "132344.096000", "132344.098000", "132344.101000", "132344.103000", "132344.106000", "132344.108000", "132344.111000", "132424.064000", "132424.066000", "132424.073000", "132424.089000", "132424.092000", "132424.094000", "132424.097000", "132424.100000", "132424.102000", "132424.105000", "132424.107000", "132424.110000", "132424.113000", "132424.115000", "132424.118000", "132424.120000", "132424.123000", "132424.125000", "132424.128000", "132424.135000", "132504.064000", "132504.067000", "132504.069000", "132504.072000", "132504.074000", "132504.077000", "132504.079000", "132504.082000", "132504.084000", "132504.087000", "132504.090000", "132504.092000", "132504.095000", "132504.097000", "132504.100000", "132504.102000", "132504.105000", "132504.107000", "132504.110000", "132504.112000", "132544.063000", "132544.066000", "132544.069000", "132544.071000", "132544.074000", "132544.076000", "132544.079000", "132544.082000", "132544.084000", "132544.087000", "132544.089000", "132544.092000", "132544.094000", "132544.097000", "132544.100000", "132544.102000", "132544.105000", "132544.107000", "132544.110000", "132544.112000", "132624.063000", "132624.066000", "132624.069000", "132624.071000", "132624.074000", "132624.077000", "132624.079000", "132624.082000", "132624.084000", "132624.087000", "132624.089000", "132624.092000", "132624.094000", "132624.097000", "132624.100000", "132624.102000", "132624.105000", "132624.107000", "132624.110000", "132624.112000", "132704.063000", "132704.066000", "132704.069000", "132704.071000", "132704.074000", "132704.077000", "132704.080000", "132704.082000", "132704.085000", "132704.087000", "132704.090000", "132704.092000", "132704.095000", "132704.097000", "132704.100000", "132704.103000", "132704.105000", "132704.108000", "132704.110000", "132704.113000", "132744.064000", "132744.067000", "132744.069000", "132744.072000", "132744.074000", "132744.077000", "132744.079000", "132744.082000", "132744.084000", "132744.087000", "132744.090000", "132744.092000", "132744.095000", "132744.097000", "132744.100000", "132744.103000", "132744.105000", "132744.108000", "132744.110000", "132744.113000", "132824.063000", "132824.066000", "132824.069000", "132824.071000", "132824.074000", "132824.077000", "132824.079000", "132824.082000", "132824.084000", "132824.087000", "132824.089000", "132824.092000", "132824.094000", "132824.097000", "132824.100000", "132824.102000", "132824.105000", "132824.108000", "132824.110000", "132824.113000", "132904.064000", "132904.066000", "132904.069000", "132904.072000", "132904.074000", "132904.077000", "132904.079000", "132904.082000", "132904.084000", "132904.087000", "132904.089000", "132904.092000", "132904.094000", "132904.097000", "132904.099000", "132904.115000", "132904.118000", "132904.121000", "132904.123000", "132904.126000", "132944.064000", "132944.066000", "132944.069000", "132944.072000", "132944.074000", "132944.077000", "132944.079000", "132944.082000", "132944.084000", "132944.087000", "132944.089000", "132944.092000", "132944.094000", "132944.097000", "132944.099000", "132944.102000", "132944.104000", "132944.107000", "132944.109000", "132944.112000", "133024.064000", "133024.066000", "133024.069000", "133024.072000", "133024.074000", "133024.077000", "133024.079000", "133024.082000", "133024.084000", "133024.093000", "133024.095000", "133024.098000", "133024.100000", "133024.103000", "133024.105000", "133024.108000", "133024.110000", "133024.113000", "133024.116000", "133024.118000", "133104.063000", "133104.066000", "133104.069000", "133104.071000", "133104.074000", "133104.076000", "133104.079000", "133104.081000", "133104.084000", "133104.086000", "133104.089000", "133104.091000", "133104.094000", "133104.097000", "133104.099000", "133104.102000", "133104.104000", "133104.107000", "133104.109000", "133104.112000", "133144.063000", "133144.066000", "133144.069000", "133144.071000", "133144.074000", "133144.076000", "133144.079000", "133144.081000", "133144.084000", "133144.087000", "133144.089000", "133144.092000", "133144.094000", "133144.097000", "133144.099000", "133144.102000", "133144.104000", "133144.106000", "133144.109000", "133144.112000", "133224.064000", "133224.066000", "133224.069000", "133224.071000", "133224.074000", "133224.077000", "133224.079000", "133224.082000", "133224.084000", "133224.087000", "133224.089000", "133224.092000", "133224.094000", "133224.097000", "133224.099000", "133224.102000", "133224.104000", "133224.107000", "133224.109000", "133224.112000", "133304.064000", "133304.066000", "133304.069000", "133304.071000", "133304.074000", "133304.077000", "133304.079000", "133304.082000", "133304.084000", "133304.087000", "133304.089000", "133304.092000", "133304.094000", "133304.097000", "133304.099000", "133304.102000", "133304.104000", "133304.107000", "133304.110000", "133304.112000", "133344.063000", "133344.066000", "133344.069000", "133344.071000", "133344.074000", "133344.076000", "133344.079000", "133344.081000", "133344.084000", "133344.087000", "133344.089000", "133344.092000", "133344.094000", "133344.097000", "133344.099000", "133344.102000", "133344.104000", "133344.107000", "133344.109000", "133344.112000", "133424.063000", "133424.066000", "133424.069000", "133424.071000", "133424.074000", "133424.076000", "133424.079000", "133424.081000", "133424.084000", "133424.087000", "133424.089000", "133424.092000", "133424.094000", "133424.097000", "133424.099000", "133424.102000", "133424.104000", "133424.107000", "133424.109000", "133424.112000", "133504.064000", "133504.066000", "133504.069000", "133504.071000", "133504.074000", "133504.076000", "133504.079000", "133504.082000", "133504.084000", "133504.087000", "133504.089000", "133504.092000", "133504.094000", "133504.097000", "133504.099000", "133504.114000", "133504.117000", "133504.120000", "133504.122000", "133504.125000", "133509.759000", "133509.761000"],
