{
  "AcquisitionMatrixPE": 96,
  "AcquisitionNumber": 1,
  "AcquisitionTime": "12:37:53.397500",
  "BandwidthPerPixelPhaseEncode": 20.425,
  "BaseResolution": 96,
  "BodyPartExamined": "BRAIN",
  "CoilCombinationMethod": "Sum of Squares",
  "ConsistencyInfo": "N4_VE11C_LATEST_20160120",
  "ConversionSoftware": "dcm2niix",
  "ConversionSoftwareVersion": "v1.0.20211006",
  "DerivedVendorReportedEchoSpacing": 0.000509996,
  "DeviceSerialNumber": "166054",
  "DwellTime": 2.3e-06,
  "EchoTime": 0.03,
  "EchoTrainLength": 96,
  "EffectiveEchoSpacing": 0.000509996,
  "FlipAngle": 75,
  "HeudiconvVersion": "0.11.3+d20220512",
  "ImageComments": "Unaliased MB2/PE2",
  "ImageOrientationPatientDICOM": [0.986562, -0.061701, 0.151288, 0.118339, 0.908286, -0.401264],
  "ImageOrientationText": "Tra>Cor(-24.6)>Sag(6.5)",
  "ImageType": [
    "ORIGINAL",
    "PRIMARY",
    "M",
    "MB",
    "ND",
    "MOSAIC"
],
  "ImagingFrequency": 123.26,
  "InPlanePhaseEncodingDirectionDICOM": "COL",
  "InstitutionAddress": "Street StreetNo,City,District,IL,ZIP",
  "InstitutionName": "Weizmann Institute",
  "InstitutionalDepartmentName": "Department",
  "MRAcquisitionType": "2D",
  "MagneticFieldStrength": 3,
  "Manufacturer": "Siemens",
  "ManufacturersModelName": "Prisma",
  "MatrixCoilMode": "SENSE",
  "Modality": "MR",
  "MultibandAccelerationFactor": 2,
  "PartialFourier": 1,
  "PatientPosition": "HFS",
  "PercentPhaseFOV": 100,
  "PercentSampling": 100,
  "PhaseEncodingDirection": "j-",
  "PhaseEncodingSteps": 96,
  "PhaseResolution": 1,
  "PixelBandwidth": 2265,
  "ProcedureStepDescription": "Weizmann^Sobel",
  "ProtocolName": "EPI_PSAP_iso2.5",
  "PulseSequenceDetails": "%CustomerSeq%\\cmrr_mbep2d_bold",
  "ReceiveCoilActiveElements": "HEA;HEP",
  "ReceiveCoilName": "Head_32",
  "ReconMatrixPE": 96,
  "RepetitionTime": 2,
  "SAR": 0.103697,
  "ScanOptions": "FS",
  "ScanningSequence": "EP",
  "SequenceName": "epfid2d1_96",
  "SequenceVariant": "SK\\SS",
  "SeriesDescription": "EPI_PSAP_iso2.5",
  "SeriesNumber": 6,
  "ShimSetting": [5916, -4029, -1955, 432, 72, -43, -28, -53],
  "SliceThickness": 2.5,
  "SliceTiming": [0, 0.92, 1.84, 0.7775, 1.6975, 0.6375, 1.555, 0.495, 1.415, 0.355, 1.2725, 0.2125, 1.1325, 0.0725, 0.99, 1.91, 0.85, 1.7675, 0.7075, 1.6275, 0.565, 1.485, 0.425, 1.345, 0.2825, 1.2025, 0.1425, 1.06, 0, 0.92, 1.84, 0.7775, 1.6975, 0.6375, 1.555, 0.495, 1.415, 0.355, 1.2725, 0.2125, 1.1325, 0.0725, 0.99, 1.91, 0.85, 1.7675, 0.7075, 1.6275, 0.565, 1.485, 0.425, 1.345, 0.2825, 1.2025, 0.1425, 1.06],
  "SoftwareVersions": "syngo MR E11",
  "SpacingBetweenSlices": 2.5,
  "StationName": "AWP166054",
  "TaskName": "PSAP",
  "TotalReadoutTime": 0.0484496,
  "TxRefAmp": 253.7,
  "VendorReportedEchoSpacing": 0.00051,
  "WipMemBlock": "ad8f6bc1-f298-4cfb-853a-99dbacbe57cd||Sequence: R016 ve11c/master r/e634e98; Dec 19 2017 11:00:25 by eja",
  "dcmmeta_affine": [
    [-2.466405153274536, 0.29584750533103943, 0.2816368639469147, 98.13654327392578],
    [0.15425238013267517, 2.270714044570923, -1.0344390869140625, -82.63610076904297],
    [0.37822118401527405, 1.0031611919403076, 2.2584545612335205, -150.2736358642578],
    [0.0, 0.0, 0.0, 1.0]
],
  "dcmmeta_reorient_transform": [
    [0.0, -1.0, 0.0, 95.0],
    [1.0, 0.0, 0.0, 0.0],
    [0.0, 0.0, 1.0, 0.0],
    [0.0, 0.0, 0.0, 1.0]
],
  "dcmmeta_shape": [96, 96, 56, 469],
  "dcmmeta_slice_dim": 2,
  "dcmmeta_version": 0.6,
  "global": {
    "const": {
      "AcquisitionMatrix": [96, 0, 0, 96],
      "AngioFlag": "N",
      "BitsAllocated": 16,
      "BitsStored": 16,
      "BodyPartExamined": "BRAIN",
      "Columns": 768,
      "EchoNumbers": 1,
      "EchoTime": 30.0,
      "EchoTrainLength": 96,
      "FlipAngle": 75.0,
      "HighBit": 15,
      "ImageOrientationPatient": [0.98656210601779, -0.0617009532358, 0.15128847721999, 0.11833900286591, 0.90828559014107, -0.4012644603535],
      "ImagePositionPatient": [-1054.3589861325, -844.21281904075, 155.0064924532],
      "ImageType": [
        "ORIGINAL",
        "PRIMARY",
        "M",
        "MB",
        "ND",
        "MOSAIC"
],
      "ImagedNucleus": "1H",
      "ImagingFrequency": 123.259929,
      "InPlanePhaseEncodingDirection": "COL",
      "MRAcquisitionType": "2D",
      "MagneticFieldStrength": 3.0,
      "Manufacturer": "SIEMENS",
      "ManufacturerModelName": "Prisma",
      "Modality": "MR",
      "NumberOfAverages": 1.0,
      "NumberOfPhaseEncodingSteps": 96,
      "PercentPhaseFieldOfView": 100.0,
      "PercentSampling": 100.0,
      "PerformedProcedureStepStartTime": "115750.732000",
      "PhotometricInterpretation": "MONOCHROME2",
      "PixelBandwidth": 2265.0,
      "PixelRepresentation": 0,
      "PixelSpacing": [2.5, 2.5],
      "ProtocolName": "EPI_PSAP_iso2.5",
      "RepetitionTime": 2000.0,
      "Rows": 768,
      "SAR": 0.10369668785329,
      "SamplesPerPixel": 1,
      "ScanOptions": "FS",
      "ScanningSequence": "EP",
      "SequenceName": "epfid2d1_96",
      "SequenceVariant": [
        "SK",
        "SS"
],
      "SeriesDescription": "EPI_PSAP_iso2.5",
      "SeriesNumber": 6,
      "SeriesTime": "123835.212000",
      "SliceLocation": -90.506116416313,
      "SliceThickness": 2.5,
      "SmallestImagePixelValue": 0,
      "SoftwareVersions": "syngo MR E11",
      "SpacingBetweenSlices": 2.5000000513031,
      "SpecificCharacterSet": "ISO_IR 100",
      "StudyID": "1",
      "StudyTime": "115750.635000",
      "TransmitCoilName": "Body",
      "VariableFlipAngleFlag": "N",
      "WindowCenterWidthExplanation": "Algo1",
      "dBdt": 0.0},
    "slices": {}
  },
  "time": {
    "samples": {
      "AcquisitionNumber": [1, 2, 3, 4, 5, 6, 7, 8, 9, 10, 11, 12, 13, 14, 15, 16, 17, 18, 19, 20, 21, 22, 23, 24, 25, 26, 27, 28, 29, 30, 31, 32, 33, 34, 35, 36, 37, 38, 39, 40, 41, 42, 43, 44, 45, 46, 47, 48, 49, 50, 51, 52, 53, 54, 55, 56, 57, 58, 59, 60, 61, 62, 63, 64, 65, 66, 67, 68, 69, 70, 71, 72, 73, 74, 75, 76, 77, 78, 79, 80, 81, 82, 83, 84, 85, 86, 87, 88, 89, 90, 91, 92, 93, 94, 95, 96, 97, 98, 99, 100, 101, 102, 103, 104, 105, 106, 107, 108, 109, 110, 111, 112, 113, 114, 115, 116, 117, 118, 119, 120, 121, 122, 123, 124, 125, 126, 127, 128, 129, 130, 131, 132, 133, 134, 135, 136, 137, 138, 139, 140, 141, 142, 143, 144, 145, 146, 147, 148, 149, 150, 151, 152, 153, 154, 155, 156, 157, 158, 159, 160, 161, 162, 163, 164, 165, 166, 167, 168, 169, 170, 171, 172, 173, 174, 175, 176, 177, 178, 179, 180, 181, 182, 183, 184, 185, 186, 187, 188, 189, 190, 191, 192, 193, 194, 195, 196, 197, 198, 199, 200, 201, 202, 203, 204, 205, 206, 207, 208, 209, 210, 211, 212, 213, 214, 215, 216, 217, 218, 219, 220, 221, 222, 223, 224, 225, 226, 227, 228, 229, 230, 231, 232, 233, 234, 235, 236, 237, 238, 239, 240, 241, 242, 243, 244, 245, 246, 247, 248, 249, 250, 251, 252, 253, 254, 255, 256, 257, 258, 259, 260, 261, 262, 263, 264, 265, 266, 267, 268, 269, 270, 271, 272, 273, 274, 275, 276, 277, 278, 279, 280, 281, 282, 283, 284, 285, 286, 287, 288, 289, 290, 291, 292, 293, 294, 295, 296, 297, 298, 299, 300, 301, 302, 303, 304, 305, 306, 307, 308, 309, 310, 311, 312, 313, 314, 315, 316, 317, 318, 319, 320, 321, 322, 323, 324, 325, 326, 327, 328, 329, 330, 331, 332, 333, 334, 335, 336, 337, 338, 339, 340, 341, 342, 343, 344, 345, 346, 347, 348, 349, 350, 351, 352, 353, 354, 355, 356, 357, 358, 359, 360, 361, 362, 363, 364, 365, 366, 367, 368, 369, 370, 371, 372, 373, 374, 375, 376, 377, 378, 379, 380, 381, 382, 383, 384, 385, 386, 387, 388, 389, 390, 391, 392, 393, 394, 395, 396, 397, 398, 399, 400, 401, 402, 403, 404, 405, 406, 407, 408, 409, 410, 431, 432, 433, 434, 435, 436, 437, 438, 439, 440, 441, 442, 443, 444, 445, 446, 447, 448, 449, 450, 451, 452, 453, 454, 455, 456, 457, 458, 459, 460, 461, 462, 463, 464, 465, 466, 467, 468, 469, 470, 471, 472, 473, 474, 475, 476, 477, 478, 479, 480, 481, 482, 483, 484, 485, 486, 487, 488, 489],
      "AcquisitionTime": ["123753.397500", "123755.397500", "123757.397500", "123759.397500", "123801.397500", "123803.397500", "123805.397500", "123807.397500", "123809.397500", "123811.397500", "123813.397500", "123815.397500", "123817.397500", "123819.397500", "123821.397500", "123823.397500", "123825.397500", "123827.397500", "123829.397500", "123831.397500", "123833.397500", "123835.397500", "123837.397500", "123839.397500", "123841.397500", "123843.397500", "123845.397500", "123847.397500", "123849.397500", "123851.397500", "123853.397500", "123855.397500", "123857.397500", "123859.397500", "123901.397500", "123903.397500", "123905.397500", "123907.397500", "123909.397500", "123911.397500", "123913.397500", "123915.397500", "123917.397500", "123919.397500", "123921.397500", "123923.397500", "123925.397500", "123927.397500", "123929.397500", "123931.397500", "123933.397500", "123935.397500", "123937.397500", "123939.397500", "123941.397500", "123943.397500", "123945.397500", "123947.397500", "123949.397500", "123951.397500", "123953.397500", "123955.397500", "123957.397500", "123959.397500", "124001.397500", "124003.397500", "124005.397500", "124007.397500", "124009.397500", "124011.397500", "124013.397500", "124015.397500", "124017.397500", "124019.397500", "124021.397500", "124023.397500", "124025.397500", "124027.397500", "124029.397500", "124031.397500", "124033.397500", "124035.397500", "124037.397500", "124039.397500", "124041.397500", "124043.397500", "124045.397500", "124047.397500", "124049.397500", "124051.397500", "124053.397500", "124055.397500", "124057.397500", "124059.397500", "124101.397500", "124103.397500", "124105.397500", "124107.397500", "124109.397500", "124111.397500", "124113.397500", "124115.397500", "124117.397500", "124119.397500", "124121.397500", "124123.397500", "124125.397500", "124127.397500", "124129.397500", "124131.397500", "124133.397500", "124135.397500", "124137.397500", "124139.397500", "124141.397500", "124143.397500", "124145.397500", "124147.397500", "124149.397500", "124151.397500", "124153.397500", "124155.397500", "124157.397500", "124159.397500", "124201.397500", "124203.397500", "124205.397500", "124207.397500", "124209.397500", "124211.397500", "124213.397500", "124215.397500", "124217.397500", "124219.397500", "124221.397500", "124223.397500", "124225.397500", "124227.397500", "124229.397500", "124231.397500", "124233.397500", "124235.397500", "124237.397500", "124239.397500", "124241.397500", "124243.397500", "124245.397500", "124247.397500", "124249.397500", "124251.397500", "124253.397500", "124255.397500", "124257.397500", "124259.397500", "124301.397500", "124303.397500", "124305.397500", "124307.397500", "124309.397500", "124311.397500", "124313.397500", "124315.397500", "124317.397500", "124319.397500", "124321.397500", "124323.397500", "124325.397500", "124327.397500", "124329.397500", "124331.397500", "124333.397500", "124335.397500", "124337.397500", "124339.397500", "124341.397500", "124343.397500", "124345.397500", "124347.397500", "124349.397500", "124351.397500", "124353.397500", "124355.397500", "124357.397500", "124359.397500", "124401.397500", "124403.397500", "124405.397500", "124407.397500", "124409.397500", "124411.397500", "124413.397500", "124415.397500", "124417.397500", "124419.397500", "124421.397500", "124423.397500", "124425.397500", "124427.397500", "124429.397500", "124431.397500", "124433.397500", "124435.397500", "124437.397500", "124439.397500", "124441.397500", "124443.397500", "124445.397500", "124447.397500", "124449.397500", "124451.397500", "124453.397500", "124455.397500", "124457.397500", "124459.397500", "124501.397500", "124503.397500", "124505.397500", "124507.397500", "124509.397500", "124511.397500", "124513.397500", "124515.397500", "124517.397500", "124519.397500", "124521.397500", "124523.397500", "124525.397500", "124527.397500", "124529.397500", "124531.397500", "124533.397500", "124535.397500", "124537.397500", "124539.397500", "124541.397500", "124543.397500", "124545.397500", "124547.397500", "124549.397500", "124551.397500", "124553.397500", "124555.397500", "124557.397500", "124559.397500", "124601.397500", "124603.397500", "124605.397500", "124607.397500", "124609.397500", "124611.397500", "124613.397500", "124615.397500", "124617.397500", "124619.397500", "124621.397500", "124623.397500", "124625.397500", "124627.397500", "124629.397500", "124631.397500", "124633.397500", "124635.397500", "124637.397500", "124639.397500", "124641.397500", "124643.397500", "124645.397500", "124647.397500", "124649.397500", "124651.397500", "124653.397500", "124655.397500", "124657.397500", "124659.397500", "124701.397500", "124703.397500", "124705.397500", "124707.397500", "124709.397500", "124711.397500", "124713.397500", "124715.397500", "124717.397500", "124719.397500", "124721.397500", "124723.397500", "124725.397500", "124727.397500", "124729.397500", "124731.397500", "124733.397500", "124735.397500", "124737.397500", "124739.397500", "124741.397500", "124743.397500", "124745.397500", "124747.397500", "124749.397500", "124751.397500", "124753.397500", "124755.397500", "124757.397500", "124759.397500", "124801.397500", "124803.397500", "124805.397500", "124807.397500", "124809.397500", "124811.397500", "124813.397500", "124815.397500", "124817.397500", "124819.397500", "124821.397500", "124823.397500", "124825.397500", "124827.397500", "124829.397500", "124831.397500", "124833.397500", "124835.397500", "124837.397500", "124839.397500", "124841.397500", "124843.397500", "124845.397500", "124847.397500", "124849.397500", "124851.397500", "124853.397500", "124855.397500", "124857.397500", "124859.397500", "124901.397500", "124903.397500", "124905.397500", "124907.397500", "124909.397500", "124911.397500", "124913.397500", "124915.397500", "124917.397500", "124919.397500", "124921.397500", "124923.397500", "124925.397500", "124927.397500", "124929.397500", "124931.397500", "124933.397500", "124935.397500", "124937.397500", "124939.397500", "124941.397500", "124943.397500", "124945.397500", "124947.397500", "124949.397500", "124951.397500", "124953.397500", "124955.397500", "124957.397500", "124959.397500", "125001.397500", "125003.397500", "125005.397500", "125007.397500", "125009.397500", "125011.397500", "125013.397500", "125015.397500", "125017.397500", "125019.397500", "125021.397500", "125023.397500", "125025.397500", "125027.397500", "125029.397500", "125031.397500", "125033.397500", "125035.397500", "125037.397500", "125039.397500", "125041.397500", "125043.397500", "125045.397500", "125047.397500", "125049.397500", "125051.397500", "125053.397500", "125055.397500", "125057.397500", "125059.397500", "125101.397500", "125103.397500", "125105.397500", "125107.397500", "125109.397500", "125111.397500", "125113.397500", "125115.397500", "125117.397500", "125119.397500", "125121.397500", "125123.397500", "125125.397500", "125127.397500", "125129.397500", "125131.397500", "125213.397500", "125215.397500", "125217.397500", "125219.397500", "125221.397500", "125223.397500", "125225.397500", "125227.397500", "125229.397500", "125231.397500", "125233.397500", "125235.397500", "125237.397500", "125239.397500", "125241.397500", "125243.397500", "125245.397500", "125247.397500", "125249.397500", "125251.397500", "125253.397500", "125255.397500", "125257.397500", "125259.397500", "125301.397500", "125303.397500", "125305.397500", "125307.397500", "125309.397500", "125311.397500", "125313.397500", "125315.397500", "125317.397500", "125319.397500", "125321.397500", "125323.397500", "125325.397500", "125327.397500", "125329.397500", "125331.397500", "125333.397500", "125335.397500", "125337.397500", "125339.397500", "125341.397500", "125343.397500", "125345.397500", "125347.397500", "125349.397500", "125351.397500", "125353.397500", "125355.397500", "125357.397500", "125359.397500", "125401.397500", "125403.397500", "125405.397500", "125407.397500", "125409.397500"],
      "ContentTime": ["123835.218000", "123835.226000", "123835.234000", "123835.237000", "123835.239000", "123835.242000", "123835.245000", "123835.253000", "123835.256000", "123835.259000", "123835.261000", "123835.264000", "123835.283000", "123835.286000", "123835.288000", "123835.291000", "123835.294000", "123835.297000", "123835.300000", "123835.303000", "123915.178000", "123915.181000", "123915.184000", "123915.186000", "123915.189000", "123915.191000", "123915.194000", "123915.197000", "123915.199000", "123915.202000", "123915.204000", "123915.207000", "123915.210000", "123915.212000", "123915.215000", "123915.217000", "123915.220000", "123915.222000", "123915.225000", "123915.227000", "123955.179000", "123955.181000", "123955.184000", "123955.186000", "123955.189000", "123955.192000", "123955.194000", "123955.197000", "123955.199000", "123955.202000", "123955.204000", "123955.207000", "123955.210000", "123955.212000", "123955.215000", "123955.217000", "123955.220000", "123955.223000", "123955.225000", "123955.228000", "124035.179000", "124035.182000", "124035.185000", "124035.187000", "124035.190000", "124035.192000", "124035.195000", "124035.198000", "124035.200000", "124035.203000", "124035.205000", "124035.208000", "124035.210000", "124035.213000", "124035.215000", "124035.218000", "124035.220000", "124035.223000", "124035.225000", "124035.228000", "124115.180000", "124115.190000", "124115.192000", "124115.195000", "124115.198000", "124115.200000", "124115.203000", "124115.205000", "124115.208000", "124115.210000", "124115.213000", "124115.215000", "124115.218000", "124115.220000", "124115.223000", "124115.226000", "124115.228000", "124115.231000", "124115.233000", "124115.236000", "124155.179000", "124155.181000", "124155.184000", "124155.186000", "124155.189000", "124155.266000", "124155.269000", "124155.271000", "124155.274000", "124155.276000", "124155.279000", "124155.281000", "124155.284000", "124155.286000", "124155.289000", "124155.291000", "124155.294000", "124155.296000", "124155.299000", "124155.301000", "124235.180000", "124235.183000", "124235.185000", "124235.188000", "124235.191000", "124235.203000", "124235.205000", "124235.208000", "124235.210000", "124235.213000", "124235.215000", "124235.218000", "124235.221000", "124235.223000", "124235.226000", "124235.228000", "124235.231000", "124235.233000", "124235.236000", "124235.238000", "124315.179000", "124315.182000", "124315.185000", "124315.187000", "124315.190000", "124315.192000", "124315.195000", "124315.197000", "124315.200000", "124315.203000", "124315.205000", "124315.208000", "124315.210000", "124315.213000", "124315.215000", "124315.218000", "124315.220000", "124315.223000", "124315.225000", "124315.228000", "124355.179000", "124355.181000", "124355.184000", "124355.186000", "124355.189000", "124355.192000", "124355.194000", "124355.197000", "124355.199000", "124355.202000", "124355.204000", "124355.207000", "124355.209000", "124355.212000", "124355.214000", "124355.217000", "124355.219000", "124355.222000", "124355.225000", "124355.227000", "124435.179000", "124435.181000", "124435.184000", "124435.187000", "124435.189000", "124435.192000", "124435.194000", "124435.197000", "124435.199000", "124435.202000", "124435.204000", "124435.207000", "124435.210000", "124435.212000", "124435.215000", "124435.217000", "124435.220000", "124435.222000", "124435.225000", "124435.227000", "124515.179000", "124515.182000", "124515.185000", "124515.187000", "124515.190000", "124515.204000", "124515.207000", "124515.209000", "124515.212000", "124515.214000", "124515.217000", "124515.219000", "124515.222000", "124515.224000", "124515.227000", "124515.230000", "124515.232000", "124515.235000", "124515.237000", "124515.240000", "124555.180000", "124555.182000", "124555.185000", "124555.188000", "124555.190000", "124555.193000", "124555.195000", "124555.198000", "124555.201000", "124555.203000", "124555.206000", "124555.208000", "124555.211000", "124555.213000", "124555.216000", "124555.218000", "124555.221000", "124555.224000", "124555.226000", "124555.229000", "124635.179000", "124635.181000", "124635.184000", "124635.187000", "124635.189000", "124635.192000", "124635.194000", "124635.197000", "124635.199000", "124635.202000", "124635.205000", "124635.207000", "124635.210000", "124635.212000", "124635.215000", "124635.217000", "124635.220000", "124635.222000", "124635.225000", "124635.227000", "124655.178000", "124655.181000", "124655.184000", "124655.186000", "124655.189000", "124655.192000", "124655.194000", "124655.197000", "124655.199000", "124655.210000", "124735.180000", "124735.182000", "124735.185000", "124735.188000", "124735.190000", "124735.193000", "124735.195000", "124735.198000", "124735.200000", "124735.203000", "124735.205000", "124735.208000", "124735.210000", "124735.213000", "124735.216000", "124735.218000", "124735.221000", "124735.223000", "124735.226000", "124735.228000", "124815.180000", "124815.182000", "124815.185000", "124815.187000", "124815.190000", "124815.193000", "124815.195000", "124815.198000", "124815.200000", "124815.203000", "124815.205000", "124815.208000", "124815.211000", "124815.213000", "124815.216000", "124815.218000", "124815.221000", "124815.223000", "124815.226000", "124815.228000", "124855.178000", "124855.181000", "124855.184000", "124855.186000", "124855.189000", "124855.192000", "124855.194000", "124855.197000", "124855.199000", "124855.202000", "124855.204000", "124855.207000", "124855.210000", "124855.212000", "124855.215000", "124855.217000", "124855.220000", "124855.222000", "124855.225000", "124855.228000", "124935.196000", "124935.199000", "124935.201000", "124935.204000", "124935.206000", "124935.209000", "124935.212000", "124935.214000", "124935.217000", "124935.221000", "124935.224000", "124935.233000", "124935.236000", "124935.239000", "124935.241000", "124935.244000", "124935.246000", "124935.249000", "124935.252000", "124935.254000", "125015.180000", "125015.182000", "125015.185000", "125015.187000", "125015.190000", "125015.193000", "125015.195000", "125015.198000", "125015.200000", "125015.203000", "125015.206000", "125015.208000", "125015.211000", "125015.213000", "125015.216000", "125015.218000", "125015.221000", "125015.224000", "125015.226000", "125015.229000", "125055.179000", "125055.181000", "125055.184000", "125055.187000", "125055.189000", "125055.192000", "125055.194000", "125055.197000", "125055.199000", "125055.202000", "125055.205000", "125055.207000", "125055.210000", "125055.212000", "125055.215000", "125055.217000", "125055.220000", "125055.222000", "125055.225000", "125055.227000", "125135.178000", "125135.181000", "125135.184000", "125135.187000", "125135.190000", "125135.192000", "125135.195000", "125135.198000", "125135.200000", "125135.203000", "125135.206000", "125135.209000", "125135.211000", "125135.214000", "125135.216000", "125135.219000", "125135.222000", "125135.224000", "125135.227000", "125135.230000", "125315.181000", "125315.186000", "125315.189000", "125315.192000", "125315.195000", "125315.198000", "125315.201000", "125315.204000", "125315.207000", "125315.209000", "125315.212000", "125315.215000", "125315.217000", "125315.220000", "125315.223000", "125315.226000", "125315.228000", "125315.231000", "125315.234000", "125315.237000", "125315.239000", "125315.242000", "125315.245000", "125315.248000", "125315.251000", "125315.253000", "125315.256000", "125315.259000", "125315.262000", "125315.265000", "125355.178000", "125355.181000", "125355.184000", "125355.187000", "125355.189000", "125355.192000", "125355.194000", "125355.197000", "125355.200000", "125355.203000", "125355.205000", "125355.208000", "125355.211000", "125355.213000", "125355.216000", "125355.219000", "125355.221000", "125355.224000", "125355.227000", "125355.229000", "125413.876000", "125413.879000", "125413.882000", "125413.884000", "125413.887000", "125413.901000", "125413.903000", "125413.906000", "125413.909000"],
