{
  "AcquisitionMatrixPE": 96,
  "AcquisitionNumber": 1,
  "AcquisitionTime": "11:07:7.480000",
  "BandwidthPerPixelPhaseEncode": 20.425,
  "BaseResolution": 96,
  "BodyPartExamined": "BRAIN",
  "CoilCombinationMethod": "Sum of Squares",
  "ConsistencyInfo": "N4_VE11C_LATEST_20160120",
  "ConversionSoftware": "dcm2niix",
  "ConversionSoftwareVersion": "v1.0.20211006",
  "DerivedVendorReportedEchoSpacing": 0.000509996,
  "DeviceSerialNumber": "166054",
  "DwellTime": 2.3e-06,
  "EchoTime": 0.03,
  "EchoTrainLength": 96,
  "EffectiveEchoSpacing": 0.000509996,
  "FlipAngle": 75,
  "HeudiconvVersion": "0.11.3+d20220512",
  "ImageComments": "Unaliased MB2/PE2",
  "ImageOrientationPatientDICOM": [0.998784, -0.019317, -0.0453514, -0.00767019, 0.847911, -0.530083],
  "ImageOrientationText": "Tra>Cor(-32.0)>Sag(-2.8)",
  "ImageType": [
    "ORIGINAL",
    "PRIMARY",
    "M",
    "MB",
    "ND",
    "MOSAIC"
],
  "ImagingFrequency": 123.26,
  "InPlanePhaseEncodingDirectionDICOM": "COL",
  "InstitutionAddress": "Street StreetNo,City,District,IL,ZIP",
  "InstitutionName": "Weizmann Institute",
  "InstitutionalDepartmentName": "Department",
  "MRAcquisitionType": "2D",
  "MagneticFieldStrength": 3,
  "Manufacturer": "Siemens",
  "ManufacturersModelName": "Prisma",
  "MatrixCoilMode": "SENSE",
  "Modality": "MR",
  "MultibandAccelerationFactor": 2,
  "PartialFourier": 1,
  "PatientPosition": "HFS",
  "PercentPhaseFOV": 100,
  "PercentSampling": 100,
  "PhaseEncodingDirection": "j-",
  "PhaseEncodingSteps": 96,
  "PhaseResolution": 1,
  "PixelBandwidth": 2265,
  "ProcedureStepDescription": "Weizmann^Sobel",
  "ProtocolName": "EPI_PSAP_iso2.5",
  "PulseSequenceDetails": "%CustomerSeq%\\cmrr_mbep2d_bold",
  "ReceiveCoilActiveElements": "HEA;HEP",
  "ReceiveCoilName": "Head_32",
  "ReconMatrixPE": 96,
  "RepetitionTime": 2,
  "SAR": 0.0946765,
  "ScanOptions": "FS",
  "ScanningSequence": "EP",
  "SequenceName": "epfid2d1_96",
  "SequenceVariant": "SK\\SS",
  "SeriesDescription": "EPI_PSAP_iso2.5",
  "SeriesNumber": 6,
  "ShimSetting": [5904, -4004, -1901, 450, 109, -68, 104, 22],
  "SliceThickness": 2.5,
  "SliceTiming": [0, 0.9175, 1.8375, 0.7775, 1.695, 0.635, 1.555, 0.495, 1.4125, 0.3525, 1.2725, 0.21, 1.13, 0.07, 0.99, 1.9075, 0.8475, 1.7675, 0.705, 1.625, 0.565, 1.4825, 0.4225, 1.3425, 0.2825, 1.2, 0.14, 1.06, 0, 0.9175, 1.8375, 0.7775, 1.695, 0.635, 1.555, 0.495, 1.4125, 0.3525, 1.2725, 0.21, 1.13, 0.07, 0.99, 1.9075, 0.8475, 1.7675, 0.705, 1.625, 0.565, 1.4825, 0.4225, 1.3425, 0.2825, 1.2, 0.14, 1.06],
  "SoftwareVersions": "syngo MR E11",
  "SpacingBetweenSlices": 2.5,
  "StationName": "AWP166054",
  "TaskName": "PSAP",
  "TotalReadoutTime": 0.0484496,
  "TxRefAmp": 246.9,
  "VendorReportedEchoSpacing": 0.00051,
  "WipMemBlock": "aade48ab-ba6a-4527-a5b3-4c94d11cd45b||Sequence: R016 ve11c/master r/e634e98; Dec 19 2017 11:00:25 by eja",
  "dcmmeta_affine": [
    [-2.4969608783721924, -0.01917547546327114, -0.12173387408256531, 121.43632507324219],
    [0.0482926070690155, 2.119777202606201, -1.3244668245315552, -64.34760284423828],
    [-0.11337839066982269, 1.3252081871032715, 2.1168298721313477, -126.13264465332031],
    [0.0, 0.0, 0.0, 1.0]
],
  "dcmmeta_reorient_transform": [
    [0.0, -1.0, 0.0, 95.0],
    [1.0, 0.0, 0.0, 0.0],
    [0.0, 0.0, 1.0, 0.0],
    [0.0, 0.0, 0.0, 1.0]
],
  "dcmmeta_shape": [96, 96, 56, 520],
  "dcmmeta_slice_dim": 2,
  "dcmmeta_version": 0.6,
  "global": {
    "const": {
      "AcquisitionMatrix": [96, 0, 0, 96],
      "AngioFlag": "N",
      "BitsAllocated": 16,
      "BitsStored": 16,
      "BodyPartExamined": "BRAIN",
      "Columns": 768,
      "EchoNumbers": 1,
      "EchoTime": 30.0,
      "EchoTrainLength": 96,
      "FlipAngle": 75.0,
      "HighBit": 15,
      "ImageOrientationPatient": [0.99878431419546, -0.0193170424286, -0.0453513570791, -0.0076701903965, 0.84791088915511, -0.5300832880138],
      "ImagePositionPatient": [-952.15051604516, -833.05006081403, 483.12723548539],
      "ImageType": [
        "ORIGINAL",
        "PRIMARY",
        "M",
        "MB",
        "ND",
        "MOSAIC"
],
      "ImagedNucleus": "1H",
      "ImagingFrequency": 123.260375,
      "InPlanePhaseEncodingDirection": "COL",
      "MRAcquisitionType": "2D",
      "MagneticFieldStrength": 3.0,
      "Manufacturer": "SIEMENS",
      "ManufacturerModelName": "Prisma",
      "Modality": "MR",
      "NumberOfAverages": 1.0,
      "NumberOfPhaseEncodingSteps": 96,
      "PercentPhaseFieldOfView": 100.0,
      "PercentSampling": 100.0,
      "PerformedProcedureStepStartTime": "110138.508000",
      "PhotometricInterpretation": "MONOCHROME2",
      "PixelBandwidth": 2265.0,
      "PixelRepresentation": 0,
      "PixelSpacing": [2.5, 2.5],
      "ProtocolName": "EPI_PSAP_iso2.5",
      "RepetitionTime": 2000.0,
      "Rows": 768,
      "SAR": 0.09467649547877,
      "SamplesPerPixel": 1,
      "ScanOptions": "FS",
      "ScanningSequence": "EP",
      "SequenceName": "epfid2d1_96",
      "SequenceVariant": [
        "SK",
        "SS"
],
      "SeriesDescription": "EPI_PSAP_iso2.5",
      "SeriesNumber": 6,
      "SeriesTime": "110806.907000",
      "SliceLocation": -78.623197798343,
      "SliceThickness": 2.5,
      "SmallestImagePixelValue": 0,
      "SoftwareVersions": "syngo MR E11",
      "SpacingBetweenSlices": 2.4999999474824,
      "SpecificCharacterSet": "ISO_IR 100",
      "StudyID": "1",
      "StudyTime": "110138.443000",
      "TransmitCoilName": "Body",
      "VariableFlipAngleFlag": "N",
      "WindowCenterWidthExplanation": "Algo1",
      "dBdt": 0.0},
    "slices": {}
  },
  "time": {
    "samples": {
      "AcquisitionNumber": [1, 2, 3, 4, 5, 6, 7, 8, 9, 10, 11, 12, 13, 14, 15, 16, 17, 18, 19, 20, 21, 22, 23, 24, 25, 26, 27, 28, 29, 30, 31, 32, 33, 34, 35, 36, 37, 38, 39, 40, 41, 42, 43, 44, 45, 46, 47, 48, 49, 50, 51, 52, 53, 54, 55, 56, 57, 58, 59, 60, 61, 62, 63, 64, 65, 66, 67, 68, 69, 70, 71, 72, 73, 74, 75, 76, 77, 78, 79, 80, 81, 82, 83, 84, 85, 86, 87, 88, 89, 90, 91, 92, 93, 94, 95, 96, 97, 98, 99, 100, 101, 102, 103, 104, 105, 106, 107, 108, 109, 110, 111, 112, 113, 114, 115, 116, 117, 118, 119, 120, 121, 122, 123, 124, 125, 126, 127, 128, 129, 130, 131, 132, 133, 134, 135, 136, 137, 138, 139, 140, 141, 142, 143, 144, 145, 146, 147, 148, 149, 150, 151, 152, 153, 154, 155, 156, 157, 158, 159, 160, 161, 162, 163, 164, 165, 166, 167, 168, 169, 170, 171, 172, 173, 174, 175, 176, 177, 178, 179, 180, 181, 182, 183, 184, 185, 186, 187, 188, 189, 190, 191, 192, 193, 194, 195, 196, 197, 198, 199, 200, 201, 202, 203, 204, 205, 206, 207, 208, 209, 210, 211, 212, 213, 214, 215, 216, 217, 218, 219, 220, 221, 222, 223, 224, 225, 226, 227, 228, 229, 230, 231, 232, 233, 234, 235, 236, 237, 238, 239, 240, 241, 242, 243, 244, 245, 246, 247, 248, 249, 250, 251, 252, 253, 254, 255, 256, 257, 258, 259, 260, 261, 262, 263, 264, 265, 266, 267, 268, 269, 270, 271, 272, 273, 274, 275, 276, 277, 278, 279, 280, 281, 282, 283, 284, 285, 286, 287, 288, 289, 290, 291, 292, 293, 294, 295, 296, 297, 298, 299, 300, 301, 302, 303, 304, 305, 306, 307, 308, 309, 310, 311, 312, 313, 314, 315, 316, 317, 318, 319, 320, 321, 322, 323, 324, 325, 326, 327, 328, 329, 330, 331, 332, 333, 334, 335, 336, 337, 338, 339, 340, 341, 342, 343, 344, 345, 346, 347, 348, 349, 350, 351, 352, 353, 354, 355, 356, 357, 358, 359, 360, 361, 362, 363, 364, 365, 366, 367, 368, 369, 370, 371, 372, 373, 374, 375, 376, 377, 378, 379, 380, 381, 382, 383, 384, 385, 386, 387, 388, 389, 390, 391, 392, 393, 394, 395, 396, 397, 398, 399, 400, 401, 402, 403, 404, 405, 406, 407, 408, 409, 410, 411, 412, 413, 414, 415, 416, 417, 418, 419, 420, 421, 422, 423, 424, 425, 426, 427, 428, 429, 430, 431, 432, 433, 434, 435, 436, 437, 438, 439, 440, 441, 442, 443, 444, 445, 446, 447, 448, 449, 450, 451, 452, 453, 454, 455, 456, 457, 458, 459, 460, 461, 462, 463, 464, 465, 466, 467, 468, 469, 470, 471, 472, 473, 474, 475, 476, 477, 478, 479, 480, 481, 482, 483, 484, 485, 486, 487, 488, 489, 490, 491, 492, 493, 494, 495, 496, 497, 498, 499, 500, 501, 502, 503, 504, 505, 506, 507, 508, 509, 510, 511, 512, 513, 514, 515, 516, 517, 518, 519, 520],
      "AcquisitionTime": ["110707.480000", "110709.480000", "110711.480000", "110713.480000", "110715.480000", "110717.480000", "110719.480000", "110721.480000", "110723.480000", "110725.480000", "110727.480000", "110729.480000", "110731.480000", "110733.480000", "110735.480000", "110737.480000", "110739.480000", "110741.480000", "110743.480000", "110745.480000", "110747.480000", "110749.480000", "110751.480000", "110753.480000", "110755.480000", "110757.480000", "110759.480000", "110801.480000", "110803.480000", "110805.480000", "110807.480000", "110809.480000", "110811.480000", "110813.480000", "110815.480000", "110817.480000", "110819.480000", "110821.480000", "110823.480000", "110825.480000", "110827.480000", "110829.480000", "110831.480000", "110833.480000", "110835.480000", "110837.480000", "110839.480000", "110841.480000", "110843.480000", "110845.480000", "110847.480000", "110849.480000", "110851.480000", "110853.480000", "110855.480000", "110857.480000", "110859.480000", "110901.480000", "110903.480000", "110905.480000", "110907.480000", "110909.480000", "110911.480000", "110913.480000", "110915.480000", "110917.480000", "110919.480000", "110921.480000", "110923.480000", "110925.480000", "110927.480000", "110929.480000", "110931.480000", "110933.480000", "110935.480000", "110937.480000", "110939.480000", "110941.480000", "110943.480000", "110945.480000", "110947.480000", "110949.480000", "110951.480000", "110953.480000", "110955.480000", "110957.480000", "110959.480000", "111001.480000", "111003.480000", "111005.480000", "111007.480000", "111009.480000", "111011.480000", "111013.480000", "111015.480000", "111017.480000", "111019.480000", "111021.480000", "111023.480000", "111025.480000", "111027.480000", "111029.480000", "111031.480000", "111033.480000", "111035.480000", "111037.480000", "111039.480000", "111041.480000", "111043.480000", "111045.480000", "111047.480000", "111049.480000", "111051.480000", "111053.480000", "111055.480000", "111057.480000", "111059.480000", "111101.480000", "111103.480000", "111105.480000", "111107.480000", "111109.480000", "111111.480000", "111113.480000", "111115.480000", "111117.480000", "111119.480000", "111121.480000", "111123.480000", "111125.480000", "111127.480000", "111129.480000", "111131.480000", "111133.480000", "111135.480000", "111137.480000", "111139.480000", "111141.480000", "111143.480000", "111145.480000", "111147.480000", "111149.480000", "111151.480000", "111153.480000", "111155.480000", "111157.480000", "111159.480000", "111201.480000", "111203.480000", "111205.480000", "111207.480000", "111209.480000", "111211.480000", "111213.480000", "111215.480000", "111217.480000", "111219.480000", "111221.480000", "111223.480000", "111225.480000", "111227.480000", "111229.480000", "111231.480000", "111233.480000", "111235.480000", "111237.480000", "111239.480000", "111241.480000", "111243.480000", "111245.480000", "111247.480000", "111249.480000", "111251.480000", "111253.480000", "111255.480000", "111257.480000", "111259.480000", "111301.480000", "111303.480000", "111305.480000", "111307.480000", "111309.480000", "111311.480000", "111313.480000", "111315.480000", "111317.480000", "111319.480000", "111321.480000", "111323.480000", "111325.480000", "111327.480000", "111329.480000", "111331.480000", "111333.480000", "111335.480000", "111337.480000", "111339.480000", "111341.480000", "111343.480000", "111345.480000", "111347.480000", "111349.480000", "111351.480000", "111353.480000", "111355.480000", "111357.480000", "111359.480000", "111401.480000", "111403.480000", "111405.480000", "111407.480000", "111409.480000", "111411.480000", "111413.480000", "111415.480000", "111417.480000", "111419.480000", "111421.480000", "111423.480000", "111425.480000", "111427.480000", "111429.480000", "111431.480000", "111433.480000", "111435.480000", "111437.480000", "111439.480000", "111441.480000", "111443.480000", "111445.480000", "111447.480000", "111449.480000", "111451.480000", "111453.480000", "111455.480000", "111457.480000", "111459.480000", "111501.480000", "111503.480000", "111505.480000", "111507.480000", "111509.480000", "111511.480000", "111513.480000", "111515.480000", "111517.480000", "111519.480000", "111521.480000", "111523.480000", "111525.480000", "111527.480000", "111529.480000", "111531.480000", "111533.480000", "111535.480000", "111537.480000", "111539.480000", "111541.480000", "111543.480000", "111545.480000", "111547.480000", "111549.480000", "111551.480000", "111553.480000", "111555.480000", "111557.480000", "111559.480000", "111601.480000", "111603.480000", "111605.480000", "111607.480000", "111609.480000", "111611.480000", "111613.480000", "111615.480000", "111617.480000", "111619.480000", "111621.480000", "111623.480000", "111625.480000", "111627.480000", "111629.480000", "111631.480000", "111633.480000", "111635.480000", "111637.480000", "111639.480000", "111641.480000", "111643.480000", "111645.480000", "111647.480000", "111649.480000", "111651.480000", "111653.480000", "111655.480000", "111657.480000", "111659.480000", "111701.480000", "111703.480000", "111705.480000", "111707.480000", "111709.480000", "111711.480000", "111713.480000", "111715.480000", "111717.480000", "111719.480000", "111721.480000", "111723.480000", "111725.480000", "111727.480000", "111729.480000", "111731.480000", "111733.480000", "111735.480000", "111737.480000", "111739.480000", "111741.480000", "111743.480000", "111745.480000", "111747.480000", "111749.480000", "111751.480000", "111753.480000", "111755.480000", "111757.480000", "111759.480000", "111801.480000", "111803.480000", "111805.480000", "111807.480000", "111809.480000", "111811.480000", "111813.480000", "111815.480000", "111817.480000", "111819.480000", "111821.480000", "111823.480000", "111825.480000", "111827.480000", "111829.480000", "111831.480000", "111833.480000", "111835.480000", "111837.480000", "111839.480000", "111841.480000", "111843.480000", "111845.480000", "111847.480000", "111849.480000", "111851.480000", "111853.480000", "111855.480000", "111857.480000", "111859.480000", "111901.480000", "111903.480000", "111905.480000", "111907.480000", "111909.480000", "111911.480000", "111913.480000", "111915.480000", "111917.480000", "111919.480000", "111921.480000", "111923.480000", "111925.480000", "111927.480000", "111929.480000", "111931.480000", "111933.480000", "111935.480000", "111937.480000", "111939.480000", "111941.480000", "111943.480000", "111945.480000", "111947.480000", "111949.480000", "111951.480000", "111953.480000", "111955.480000", "111957.480000", "111959.480000", "112001.480000", "112003.480000", "112005.480000", "112007.480000", "112009.480000", "112011.480000", "112013.480000", "112015.480000", "112017.480000", "112019.480000", "112021.480000", "112023.480000", "112025.480000", "112027.480000", "112029.480000", "112031.480000", "112033.480000", "112035.480000", "112037.480000", "112039.480000", "112041.480000", "112043.480000", "112045.480000", "112047.480000", "112049.480000", "112051.480000", "112053.480000", "112055.480000", "112057.480000", "112059.480000", "112101.480000", "112103.480000", "112105.480000", "112107.480000", "112109.480000", "112111.480000", "112113.480000", "112115.480000", "112117.480000", "112119.480000", "112121.480000", "112123.480000", "112125.480000", "112127.480000", "112129.480000", "112131.480000", "112133.480000", "112135.480000", "112137.480000", "112139.480000", "112141.480000", "112143.480000", "112145.480000", "112147.480000", "112149.480000", "112151.480000", "112153.480000", "112155.480000", "112157.480000", "112159.480000", "112201.480000", "112203.480000", "112205.480000", "112207.480000", "112209.480000", "112211.480000", "112213.480000", "112215.480000", "112217.480000", "112219.480000", "112221.480000", "112223.480000", "112225.480000", "112227.480000", "112229.480000", "112231.480000", "112233.480000", "112235.480000", "112237.480000", "112239.480000", "112241.480000", "112243.480000", "112245.480000", "112247.480000", "112249.480000", "112251.480000", "112253.480000", "112255.480000", "112257.480000", "112259.480000", "112301.480000", "112303.480000", "112305.480000", "112307.480000", "112309.480000", "112311.480000", "112313.480000", "112315.480000", "112317.480000", "112319.480000", "112321.480000", "112323.480000", "112325.480000", "112327.480000", "112329.480000", "112331.480000", "112333.480000", "112335.480000", "112337.480000", "112339.480000", "112341.480000", "112343.480000", "112345.480000", "112347.480000", "112349.480000", "112351.480000", "112353.480000", "112355.480000", "112357.480000", "112359.480000", "112401.480000", "112403.480000", "112405.480000", "112407.480000", "112409.480000", "112411.480000", "112413.480000", "112415.480000", "112417.480000", "112419.480000", "112421.480000", "112423.480000", "112425.480000"],
      "ContentTime": ["110806.910000", "110806.913000", "110806.916000", "110806.918000", "110806.924000", "110806.929000", "110806.932000", "110806.935000", "110806.937000", "110806.940000", "110806.942000", "110806.945000", "110806.948000", "110806.950000", "110806.953000", "110806.956000", "110806.958000", "110806.961000", "110806.965000", "110806.967000", "110806.970000", "110806.973000", "110806.975000", "110806.978000", "110806.981000", "110806.983000", "110806.986000", "110806.989000", "110806.991000", "110846.871000", "110846.874000", "110846.880000", "110846.883000", "110846.886000", "110846.889000", "110846.891000", "110846.894000", "110846.897000", "110846.899000", "110846.902000", "110846.921000", "110846.924000", "110846.926000", "110846.929000", "110846.931000", "110846.934000", "110846.937000", "110846.939000", "110846.942000", "110926.871000", "110926.874000", "110926.876000", "110926.879000", "110926.882000", "110926.885000", "110926.887000", "110926.890000", "110926.892000", "110926.895000", "110926.898000", "110926.901000", "110926.911000", "110926.914000", "110926.916000", "110926.919000", "110926.921000", "110926.924000", "110926.927000", "110926.929000", "111006.872000", "111006.885000", "111006.888000", "111006.890000", "111006.893000", "111006.895000", "111006.898000", "111006.901000", "111006.903000", "111006.906000", "111006.909000", "111006.911000", "111006.914000", "111006.916000", "111006.919000", "111006.922000", "111006.924000", "111006.927000", "111006.930000", "111006.932000", "111046.871000", "111046.873000", "111046.877000", "111046.879000", "111046.882000", "111046.884000", "111046.887000", "111046.889000", "111046.892000", "111046.894000", "111046.897000", "111046.900000", "111046.902000", "111046.905000", "111046.907000", "111046.910000", "111046.913000", "111046.915000", "111046.929000", "111046.932000", "111126.871000", "111126.883000", "111126.886000", "111126.889000", "111126.891000", "111126.894000", "111126.896000", "111126.899000", "111126.901000", "111126.904000", "111126.907000", "111126.909000", "111126.912000", "111126.914000", "111126.917000", "111126.920000", "111126.922000", "111126.925000", "111126.928000", "111126.930000", "111206.870000", "111206.873000", "111206.876000", "111206.878000", "111206.881000", "111206.883000", "111206.886000", "111206.889000", "111206.891000", "111206.894000", "111206.897000", "111206.899000", "111206.902000", "111206.904000", "111206.907000", "111206.910000", "111206.913000", "111206.915000", "111206.918000", "111206.921000", "111246.871000", "111246.874000", "111246.877000", "111246.880000", "111246.883000", "111246.885000", "111246.888000", "111246.891000", "111246.893000", "111246.896000", "111246.899000", "111246.901000", "111246.914000", "111246.917000", "111246.920000", "111246.922000", "111246.925000", "111246.927000", "111246.930000", "111246.933000", "111326.870000", "111326.873000", "111326.876000", "111326.879000", "111326.881000", "111326.884000", "111326.886000", "111326.889000", "111326.892000", "111326.894000", "111326.897000", "111326.899000", "111326.902000", "111326.905000", "111326.907000", "111326.910000", "111326.912000", "111326.915000", "111326.918000", "111326.920000", "111406.871000", "111406.873000", "111406.876000", "111406.879000", "111406.881000", "111406.884000", "111406.887000", "111406.889000", "111406.892000", "111406.894000", "111406.897000", "111406.899000", "111406.902000", "111406.905000", "111406.907000", "111406.910000", "111406.912000", "111406.915000", "111406.918000", "111406.920000", "111446.870000", "111446.873000", "111446.876000", "111446.878000", "111446.881000", "111446.884000", "111446.886000", "111446.889000", "111446.891000", "111446.894000", "111446.897000", "111446.899000", "111446.902000", "111446.904000", "111446.907000", "111446.910000", "111446.912000", "111446.915000", "111446.917000", "111446.920000", "111526.870000", "111526.873000", "111526.876000", "111526.879000", "111526.900000", "111526.902000", "111526.905000", "111526.907000", "111526.910000", "111526.912000", "111526.915000", "111526.918000", "111526.920000", "111526.923000", "111526.925000", "111526.928000", "111526.930000", "111526.933000", "111526.936000", "111526.938000", "111606.870000", "111606.873000", "111606.876000", "111606.879000", "111606.881000", "111606.884000", "111606.886000", "111606.889000", "111606.891000", "111606.894000", "111606.896000", "111606.899000", "111606.902000", "111606.904000", "111606.907000", "111606.909000", "111606.912000", "111606.914000", "111606.917000", "111606.920000", "111646.871000", "111646.873000", "111646.876000", "111646.879000", "111646.881000", "111646.884000", "111646.886000", "111646.889000", "111646.892000", "111646.894000", "111646.897000", "111646.899000", "111646.902000", "111646.904000", "111646.907000", "111646.910000", "111646.912000", "111646.915000", "111646.917000", "111646.920000", "111726.871000", "111726.874000", "111726.877000", "111726.879000", "111726.882000", "111726.885000", "111726.887000", "111726.890000", "111726.893000", "111726.895000", "111726.898000", "111726.900000", "111726.903000", "111726.906000", "111726.908000", "111726.911000", "111726.913000", "111726.916000", "111726.919000", "111726.921000", "111806.870000", "111806.873000", "111806.876000", "111806.879000", "111806.881000", "111806.884000", "111806.886000", "111806.889000", "111806.892000", "111806.894000", "111806.897000", "111806.899000", "111806.902000", "111806.904000", "111806.907000", "111806.910000", "111806.912000", "111806.915000", "111806.918000", "111806.920000", "111846.871000", "111846.873000", "111846.876000", "111846.879000", "111846.881000", "111846.884000", "111846.887000", "111846.890000", "111846.892000", "111846.895000", "111846.897000", "111846.900000", "111846.903000", "111846.905000", "111846.908000", "111846.910000", "111846.913000", "111846.915000", "111846.918000", "111846.920000", "111926.871000", "111926.874000", "111926.877000", "111926.880000", "111926.882000", "111926.885000", "111926.888000", "111926.891000", "111926.893000", "111926.896000", "111926.899000", "111926.901000", "111926.904000", "111926.906000", "111926.909000", "111926.911000", "111926.914000", "111926.916000", "111926.919000", "111926.922000", "112006.871000", "112006.873000", "112006.876000", "112006.879000", "112006.881000", "112006.884000", "112006.887000", "112006.889000", "112006.892000", "112006.894000", "112006.897000", "112006.899000", "112006.902000", "112006.904000", "112006.907000", "112006.910000", "112006.913000", "112006.915000", "112006.918000", "112006.920000", "112046.870000", "112046.873000", "112046.876000", "112046.879000", "112046.881000", "112046.884000", "112046.886000", "112046.889000", "112046.892000", "112046.894000", "112046.897000", "112046.899000", "112046.902000", "112046.905000", "112046.907000", "112046.910000", "112046.912000", "112046.915000", "112046.918000", "112046.920000", "112126.871000", "112126.874000", "112126.876000", "112126.879000", "112126.881000", "112126.884000", "112126.887000", "112126.889000", "112126.892000", "112126.895000", "112126.897000", "112126.900000", "112126.902000", "112126.905000", "112126.908000", "112126.910000", "112126.913000", "112126.915000", "112126.918000", "112126.921000", "112206.872000", "112206.875000", "112206.877000", "112206.880000", "112206.882000", "112206.885000", "112206.888000", "112206.890000", "112206.893000", "112206.896000", "112206.898000", "112206.901000", "112206.903000", "112206.906000", "112206.909000", "112206.911000", "112206.914000", "112206.916000", "112206.919000", "112206.922000", "112246.871000", "112246.873000", "112246.876000", "112246.879000", "112246.882000", "112246.884000", "112246.887000", "112246.890000", "112246.892000", "112246.895000", "112246.897000", "112246.900000", "112246.902000", "112246.905000", "112246.908000", "112246.910000", "112246.913000", "112246.916000", "112246.918000", "112246.921000", "112326.871000", "112326.873000", "112326.876000", "112326.879000", "112326.881000", "112326.884000", "112326.887000", "112326.890000", "112326.892000", "112326.895000", "112326.898000", "112326.900000", "112326.903000", "112326.905000", "112326.908000", "112326.910000", "112326.913000", "112326.915000", "112326.918000", "112326.921000", "112406.872000", "112406.874000", "112406.877000", "112406.880000", "112406.882000", "112406.885000", "112406.888000", "112406.890000", "112406.893000", "112406.895000", "112406.898000", "112406.900000", "112406.903000", "112406.906000", "112406.908000", "112406.911000", "112406.913000", "112406.916000", "112406.919000", "112406.921000", "112428.319000", "112428.322000", "112428.324000", "112428.327000", "112428.330000", "112428.332000", "112428.335000", "112428.337000", "112428.340000", "112428.342000", "112428.345000"],
